# OpenSignals Text File Format
# {"20:16:12:22:51:27": {"sensor": ["RAW", "RAW", "RAW", "RAW"], "device name": "20:16:12:22:51:27", "column": ["nSeq", "I1", "I2", "O1", "O2", "A1", "A3", "A4", "A5"], "sync interval": 2, "time": "23:57:16.886", "comments": "", "device connection": "BTH20:16:12:22:51:27", "channels": [1, 3, 4, 5], "keywords": "", "mode": "bitalino_rev", "digital IO": [0, 0, 1, 1], "firmware version": 1281, "device": "bitalino_rev", "position": 0, "sampling rate": "bitalino_rev", "label": ["A1", "A3", "A4", "A5"], "resolution": [4, 1, 1, 1, 1, 10, 10, 10, 10], "date": "2017-9-2", "special": [{}, {}, {}, {}]}}
# EndOfHeader
0	0	0	0	0	376	567	428	559	
1	0	0	0	0	385	568	428	563	
2	0	0	0	0	413	567	428	563	
3	0	0	0	0	448	568	429	563	
4	0	0	0	0	483	568	429	566	
5	0	0	0	0	527	568	429	563	
6	0	0	0	0	559	568	429	562	
7	0	0	0	0	594	567	429	562	
8	0	0	0	0	615	567	428	559	
9	0	0	0	0	634	567	427	562	
10	0	0	0	0	655	567	428	563	
11	0	0	0	0	655	566	428	562	
12	0	0	0	0	636	567	430	566	
13	0	0	0	0	600	567	429	562	
14	0	0	0	0	552	567	429	562	
15	0	0	0	0	491	568	429	563	
0	0	0	0	0	436	568	428	559	
1	0	0	0	0	399	568	428	563	
2	0	0	0	0	372	568	428	562	
3	0	0	0	0	366	568	428	562	
4	0	0	0	0	377	568	428	566	
5	0	0	0	0	385	568	429	563	
6	0	0	0	0	404	568	429	562	
7	0	0	0	0	448	568	428	563	
8	0	0	0	0	495	568	428	558	
9	0	0	0	0	530	568	428	562	
10	0	0	0	0	557	568	428	562	
11	0	0	0	0	578	568	429	563	
12	0	0	0	0	612	568	429	566	
13	0	0	0	0	630	569	430	563	
14	0	0	0	0	657	569	429	562	
15	0	0	0	0	665	568	428	562	
0	0	0	0	0	640	569	428	558	
1	0	0	0	0	597	569	428	562	
2	0	0	0	0	544	569	429	562	
3	0	0	0	0	490	569	429	562	
4	0	0	0	0	438	568	428	566	
5	0	0	0	0	403	568	430	562	
6	0	0	0	0	380	569	429	562	
7	0	0	0	0	376	569	428	561	
8	0	0	0	0	373	569	429	558	
9	0	0	0	0	381	569	428	561	
10	0	0	0	0	413	569	428	562	
11	0	0	0	0	446	568	429	562	
12	0	0	0	0	486	569	430	566	
13	0	0	0	0	529	569	430	561	
14	0	0	0	0	558	569	429	561	
15	0	0	0	0	594	569	429	561	
0	0	0	0	0	618	569	429	558	
1	0	0	0	0	635	569	428	562	
2	0	0	0	0	653	569	429	562	
3	0	0	0	0	659	569	430	561	
4	0	0	0	0	635	569	429	566	
5	0	0	0	0	595	569	430	562	
6	0	0	0	0	544	569	430	562	
7	0	0	0	0	487	569	430	562	
8	0	0	0	0	438	570	430	558	
9	0	0	0	0	401	569	429	561	
10	0	0	0	0	376	569	430	561	
11	0	0	0	0	374	569	429	561	
12	0	0	0	0	374	569	430	566	
13	0	0	0	0	382	569	431	561	
14	0	0	0	0	407	569	430	562	
15	0	0	0	0	442	569	430	561	
0	0	0	0	0	491	569	430	557	
1	0	0	0	0	531	569	429	561	
2	0	0	0	0	559	569	430	561	
3	0	0	0	0	595	569	430	562	
4	0	0	0	0	623	569	430	565	
5	0	0	0	0	635	569	431	561	
6	0	0	0	0	655	569	430	561	
7	0	0	0	0	663	569	430	561	
8	0	0	0	0	640	569	429	558	
9	0	0	0	0	591	568	430	561	
10	0	0	0	0	536	569	430	562	
11	0	0	0	0	481	569	430	562	
12	0	0	0	0	438	569	430	566	
13	0	0	0	0	402	569	431	561	
14	0	0	0	0	386	569	430	561	
15	0	0	0	0	381	569	430	561	
0	0	0	0	0	376	569	430	557	
1	0	0	0	0	384	568	429	562	
2	0	0	0	0	417	568	430	561	
3	0	0	0	0	451	569	430	561	
4	0	0	0	0	487	568	430	565	
5	0	0	0	0	521	568	431	561	
6	0	0	0	0	555	568	430	561	
7	0	0	0	0	588	568	431	561	
8	0	0	0	0	615	568	429	557	
9	0	0	0	0	633	569	430	562	
10	0	0	0	0	655	569	430	562	
11	0	0	0	0	662	569	429	562	
12	0	0	0	0	635	568	430	566	
13	0	0	0	0	593	568	430	562	
14	0	0	0	0	544	569	430	562	
15	0	0	0	0	492	568	430	562	
0	0	0	0	0	438	568	429	558	
1	0	0	0	0	403	568	429	562	
2	0	0	0	0	378	568	430	562	
3	0	0	0	0	372	568	430	562	
4	0	0	0	0	374	568	430	567	
5	0	0	0	0	385	568	430	562	
6	0	0	0	0	415	568	430	563	
7	0	0	0	0	449	568	430	563	
8	0	0	0	0	484	568	429	559	
9	0	0	0	0	521	568	428	563	
10	0	0	0	0	563	568	430	562	
11	0	0	0	0	596	568	430	562	
12	0	0	0	0	620	568	430	566	
13	0	0	0	0	636	568	430	562	
14	0	0	0	0	655	568	429	563	
15	0	0	0	0	662	568	428	562	
0	0	0	0	0	633	568	430	558	
1	0	0	0	0	585	568	428	562	
2	0	0	0	0	535	568	429	561	
3	0	0	0	0	486	568	429	562	
4	0	0	0	0	434	568	429	566	
5	0	0	0	0	396	568	430	563	
6	0	0	0	0	384	568	429	562	
7	0	0	0	0	388	568	429	562	
8	0	0	0	0	388	568	429	558	
9	0	0	0	0	382	568	428	562	
10	0	0	0	0	408	568	429	562	
11	0	0	0	0	440	567	429	562	
12	0	0	0	0	477	568	429	566	
13	0	0	0	0	520	568	430	562	
14	0	0	0	0	558	568	429	562	
15	0	0	0	0	600	568	430	561	
0	0	0	0	0	625	568	429	558	
1	0	0	0	0	636	567	428	561	
2	0	0	0	0	647	568	429	561	
3	0	0	0	0	662	567	429	562	
4	0	0	0	0	636	568	429	565	
5	0	0	0	0	597	568	430	561	
6	0	0	0	0	548	568	429	561	
7	0	0	0	0	483	568	429	562	
8	0	0	0	0	430	567	429	558	
9	0	0	0	0	397	568	428	561	
10	0	0	0	0	382	567	428	562	
11	0	0	0	0	380	568	429	562	
12	0	0	0	0	378	568	429	566	
13	0	0	0	0	387	568	430	562	
14	0	0	0	0	410	568	429	563	
15	0	0	0	0	446	568	429	562	
0	0	0	0	0	486	568	428	558	
1	0	0	0	0	531	568	427	562	
2	0	0	0	0	559	567	428	561	
3	0	0	0	0	592	568	428	563	
4	0	0	0	0	620	568	429	566	
5	0	0	0	0	634	568	430	562	
6	0	0	0	0	655	568	428	563	
7	0	0	0	0	662	567	429	563	
8	0	0	0	0	632	567	428	559	
9	0	0	0	0	591	567	428	563	
10	0	0	0	0	545	568	428	563	
11	0	0	0	0	487	567	428	562	
12	0	0	0	0	438	568	428	566	
13	0	0	0	0	399	567	429	562	
14	0	0	0	0	373	568	428	562	
15	0	0	0	0	371	567	428	562	
0	0	0	0	0	375	567	429	559	
1	0	0	0	0	384	567	428	563	
2	0	0	0	0	411	568	428	563	
3	0	0	0	0	448	567	428	562	
4	0	0	0	0	487	568	428	567	
5	0	0	0	0	526	567	429	563	
6	0	0	0	0	558	567	429	562	
7	0	0	0	0	591	566	428	562	
8	0	0	0	0	624	567	428	558	
9	0	0	0	0	634	567	428	561	
10	0	0	0	0	646	567	428	562	
11	0	0	0	0	661	567	429	562	
12	0	0	0	0	635	567	429	566	
13	0	0	0	0	607	567	430	561	
14	0	0	0	0	551	567	428	561	
15	0	0	0	0	480	568	429	562	
0	0	0	0	0	433	567	429	558	
1	0	0	0	0	404	567	428	561	
2	0	0	0	0	377	566	428	562	
3	0	0	0	0	383	566	429	561	
4	0	0	0	0	381	566	429	565	
5	0	0	0	0	378	568	429	561	
6	0	0	0	0	409	568	428	561	
7	0	0	0	0	452	568	429	561	
8	0	0	0	0	487	568	428	557	
9	0	0	0	0	515	568	428	561	
10	0	0	0	0	548	568	428	562	
11	0	0	0	0	583	568	428	562	
12	0	0	0	0	626	567	429	566	
13	0	0	0	0	646	568	429	562	
14	0	0	0	0	661	568	429	562	
15	0	0	0	0	663	568	428	561	
0	0	0	0	0	628	568	429	558	
1	0	0	0	0	595	568	427	561	
2	0	0	0	0	542	568	429	562	
3	0	0	0	0	478	568	429	562	
4	0	0	0	0	432	568	428	566	
5	0	0	0	0	399	568	429	562	
6	0	0	0	0	383	568	427	562	
7	0	0	0	0	382	568	429	562	
8	0	0	0	0	377	568	428	558	
9	0	0	0	0	384	568	428	561	
10	0	0	0	0	415	568	429	562	
11	0	0	0	0	447	568	429	561	
12	0	0	0	0	488	568	429	565	
13	0	0	0	0	527	567	429	561	
14	0	0	0	0	561	568	429	561	
15	0	0	0	0	590	567	429	561	
0	0	0	0	0	619	567	429	557	
1	0	0	0	0	633	568	428	561	
2	0	0	0	0	654	568	428	562	
3	0	0	0	0	665	567	428	561	
4	0	0	0	0	632	568	429	566	
5	0	0	0	0	589	568	430	562	
6	0	0	0	0	541	567	428	562	
7	0	0	0	0	484	567	429	561	
8	0	0	0	0	435	567	428	558	
9	0	0	0	0	402	568	427	562	
10	0	0	0	0	377	567	429	561	
11	0	0	0	0	374	567	429	562	
12	0	0	0	0	377	567	429	566	
13	0	0	0	0	386	567	430	561	
14	0	0	0	0	409	567	429	561	
15	0	0	0	0	443	566	429	562	
0	0	0	0	0	476	567	429	557	
1	0	0	0	0	528	567	428	561	
2	0	0	0	0	571	567	429	562	
3	0	0	0	0	598	566	429	561	
4	0	0	0	0	626	566	429	566	
5	0	0	0	0	640	566	430	561	
6	0	0	0	0	658	566	429	562	
7	0	0	0	0	658	566	429	561	
8	0	0	0	0	630	567	428	558	
9	0	0	0	0	591	566	428	563	
10	0	0	0	0	543	567	429	562	
11	0	0	0	0	482	567	429	563	
12	0	0	0	0	436	567	429	566	
13	0	0	0	0	399	567	430	561	
14	0	0	0	0	380	567	430	561	
15	0	0	0	0	371	567	429	561	
0	0	0	0	0	377	567	429	558	
1	0	0	0	0	385	567	428	562	
2	0	0	0	0	413	567	429	561	
3	0	0	0	0	449	567	428	562	
4	0	0	0	0	485	567	430	566	
5	0	0	0	0	526	568	430	562	
6	0	0	0	0	557	567	429	561	
7	0	0	0	0	587	567	430	561	
8	0	0	0	0	624	567	429	558	
9	0	0	0	0	639	567	428	562	
10	0	0	0	0	658	567	430	562	
11	0	0	0	0	659	567	430	562	
12	0	0	0	0	630	568	429	566	
13	0	0	0	0	596	567	430	561	
14	0	0	0	0	544	567	429	561	
15	0	0	0	0	485	567	430	562	
0	0	0	0	0	433	567	428	558	
1	0	0	0	0	402	567	428	561	
2	0	0	0	0	378	568	429	561	
3	0	0	0	0	376	568	429	561	
4	0	0	0	0	380	567	430	566	
5	0	0	0	0	386	567	430	562	
6	0	0	0	0	412	568	428	561	
7	0	0	0	0	449	568	429	561	
8	0	0	0	0	484	567	429	557	
9	0	0	0	0	527	567	428	561	
10	0	0	0	0	553	567	430	561	
11	0	0	0	0	581	568	430	562	
12	0	0	0	0	616	568	429	565	
13	0	0	0	0	636	568	430	561	
14	0	0	0	0	663	568	428	561	
15	0	0	0	0	665	568	428	560	
0	0	0	0	0	627	568	429	557	
1	0	0	0	0	589	568	428	561	
2	0	0	0	0	547	567	429	561	
3	0	0	0	0	494	568	428	561	
4	0	0	0	0	443	568	430	565	
5	0	0	0	0	399	568	430	561	
6	0	0	0	0	366	568	429	562	
7	0	0	0	0	359	568	429	561	
8	0	0	0	0	369	568	429	558	
9	0	0	0	0	386	568	428	561	
10	0	0	0	0	432	568	429	561	
11	0	0	0	0	460	568	430	561	
12	0	0	0	0	488	568	429	565	
13	0	0	0	0	518	568	430	561	
14	0	0	0	0	553	568	430	561	
15	0	0	0	0	590	568	430	561	
0	0	0	0	0	624	568	430	558	
1	0	0	0	0	639	568	429	561	
2	0	0	0	0	651	568	430	561	
3	0	0	0	0	659	568	429	561	
4	0	0	0	0	638	568	430	565	
5	0	0	0	0	594	568	431	561	
6	0	0	0	0	545	568	429	561	
7	0	0	0	0	488	568	430	561	
8	0	0	0	0	434	568	429	558	
9	0	0	0	0	398	568	429	561	
10	0	0	0	0	374	568	430	562	
11	0	0	0	0	380	568	431	562	
12	0	0	0	0	380	568	430	566	
13	0	0	0	0	383	568	430	561	
14	0	0	0	0	411	568	430	562	
15	0	0	0	0	447	568	430	562	
0	0	0	0	0	487	568	430	558	
1	0	0	0	0	527	568	428	561	
2	0	0	0	0	559	568	429	561	
3	0	0	0	0	595	568	430	562	
4	0	0	0	0	619	567	429	564	
5	0	0	0	0	635	568	430	561	
6	0	0	0	0	655	568	430	561	
7	0	0	0	0	660	568	429	561	
8	0	0	0	0	632	568	429	557	
9	0	0	0	0	591	567	428	561	
10	0	0	0	0	543	568	430	561	
11	0	0	0	0	485	568	429	562	
12	0	0	0	0	438	568	430	565	
13	0	0	0	0	402	568	430	562	
14	0	0	0	0	376	567	429	561	
15	0	0	0	0	370	568	429	561	
0	0	0	0	0	373	567	430	557	
1	0	0	0	0	384	568	428	561	
2	0	0	0	0	412	568	429	561	
3	0	0	0	0	455	568	429	561	
4	0	0	0	0	494	568	430	565	
5	0	0	0	0	525	568	430	561	
6	0	0	0	0	552	568	429	561	
7	0	0	0	0	588	567	429	561	
8	0	0	0	0	626	568	429	557	
9	0	0	0	0	644	568	429	561	
10	0	0	0	0	656	567	429	561	
11	0	0	0	0	653	568	429	561	
12	0	0	0	0	635	568	429	564	
13	0	0	0	0	594	568	430	561	
14	0	0	0	0	542	568	428	560	
15	0	0	0	0	490	568	429	561	
0	0	0	0	0	440	568	428	556	
1	0	0	0	0	402	568	428	561	
2	0	0	0	0	376	567	429	561	
3	0	0	0	0	371	568	429	561	
4	0	0	0	0	368	568	430	566	
5	0	0	0	0	378	568	430	561	
6	0	0	0	0	409	568	429	561	
7	0	0	0	0	447	568	429	562	
8	0	0	0	0	486	568	429	558	
9	0	0	0	0	528	567	428	561	
10	0	0	0	0	561	567	429	562	
11	0	0	0	0	591	567	429	561	
12	0	0	0	0	620	567	428	566	
13	0	0	0	0	644	568	429	561	
14	0	0	0	0	660	568	429	561	
15	0	0	0	0	656	568	429	561	
0	0	0	0	0	627	567	428	558	
1	0	0	0	0	591	567	428	561	
2	0	0	0	0	547	567	429	562	
3	0	0	0	0	487	567	429	562	
4	0	0	0	0	432	567	429	566	
5	0	0	0	0	400	567	430	563	
6	0	0	0	0	377	568	429	562	
7	0	0	0	0	379	567	428	561	
8	0	0	0	0	378	567	429	558	
9	0	0	0	0	385	567	428	561	
10	0	0	0	0	413	567	429	562	
11	0	0	0	0	449	566	429	562	
12	0	0	0	0	492	567	429	566	
13	0	0	0	0	526	567	430	562	
14	0	0	0	0	556	568	428	562	
15	0	0	0	0	590	567	429	562	
0	0	0	0	0	622	567	428	558	
1	0	0	0	0	638	567	428	561	
2	0	0	0	0	659	567	428	562	
3	0	0	0	0	665	567	428	562	
4	0	0	0	0	636	566	428	566	
5	0	0	0	0	589	567	429	562	
6	0	0	0	0	540	567	429	562	
7	0	0	0	0	483	567	429	562	
8	0	0	0	0	431	567	428	558	
9	0	0	0	0	398	567	427	562	
10	0	0	0	0	374	566	429	561	
11	0	0	0	0	378	567	428	561	
12	0	0	0	0	376	567	428	565	
13	0	0	0	0	384	567	430	561	
14	0	0	0	0	408	567	429	561	
15	0	0	0	0	448	567	428	561	
0	0	0	0	0	490	567	428	558	
1	0	0	0	0	529	567	428	561	
2	0	0	0	0	558	566	429	561	
3	0	0	0	0	587	566	429	561	
4	0	0	0	0	619	566	428	565	
5	0	0	0	0	636	567	429	561	
6	0	0	0	0	655	568	428	562	
7	0	0	0	0	662	567	428	561	
8	0	0	0	0	633	567	428	558	
9	0	0	0	0	594	566	428	561	
10	0	0	0	0	547	567	428	561	
11	0	0	0	0	492	567	428	561	
12	0	0	0	0	439	567	428	565	
13	0	0	0	0	396	567	429	562	
14	0	0	0	0	372	567	429	562	
15	0	0	0	0	369	566	428	561	
0	0	0	0	0	374	566	429	559	
1	0	0	0	0	389	566	428	561	
2	0	0	0	0	416	567	429	561	
3	0	0	0	0	450	566	429	562	
4	0	0	0	0	487	567	429	566	
5	0	0	0	0	525	567	430	562	
6	0	0	0	0	556	567	429	562	
7	0	0	0	0	584	567	429	561	
8	0	0	0	0	615	567	428	558	
9	0	0	0	0	639	568	428	560	
10	0	0	0	0	664	568	429	561	
11	0	0	0	0	668	567	429	561	
12	0	0	0	0	638	568	429	566	
13	0	0	0	0	597	568	430	562	
14	0	0	0	0	545	568	429	561	
15	0	0	0	0	484	568	429	561	
0	0	0	0	0	432	568	429	557	
1	0	0	0	0	399	568	428	561	
2	0	0	0	0	371	568	429	561	
3	0	0	0	0	370	568	429	561	
4	0	0	0	0	374	568	429	566	
5	0	0	0	0	384	568	430	561	
6	0	0	0	0	414	568	429	561	
7	0	0	0	0	449	567	430	562	
8	0	0	0	0	487	567	429	556	
9	0	0	0	0	526	567	429	562	
10	0	0	0	0	558	568	430	561	
11	0	0	0	0	593	568	429	562	
12	0	0	0	0	623	568	430	565	
13	0	0	0	0	634	568	431	561	
14	0	0	0	0	659	568	429	562	
15	0	0	0	0	660	568	429	561	
0	0	0	0	0	630	567	429	558	
1	0	0	0	0	594	567	428	562	
2	0	0	0	0	545	568	429	561	
3	0	0	0	0	480	568	429	562	
4	0	0	0	0	429	568	429	565	
5	0	0	0	0	403	567	430	562	
6	0	0	0	0	375	568	429	561	
7	0	0	0	0	371	568	430	561	
8	0	0	0	0	372	567	429	558	
9	0	0	0	0	382	568	428	561	
10	0	0	0	0	414	568	429	561	
11	0	0	0	0	455	568	429	562	
12	0	0	0	0	492	568	429	565	
13	0	0	0	0	529	568	430	561	
14	0	0	0	0	563	568	429	562	
15	0	0	0	0	591	568	429	562	
0	0	0	0	0	615	568	430	558	
1	0	0	0	0	637	568	428	562	
2	0	0	0	0	661	568	429	562	
3	0	0	0	0	665	568	429	561	
4	0	0	0	0	630	568	429	565	
5	0	0	0	0	587	568	429	561	
6	0	0	0	0	540	568	429	561	
7	0	0	0	0	481	568	429	561	
8	0	0	0	0	440	568	429	557	
9	0	0	0	0	403	568	428	561	
10	0	0	0	0	374	568	428	561	
11	0	0	0	0	369	568	428	561	
12	0	0	0	0	366	568	429	565	
13	0	0	0	0	390	568	430	561	
14	0	0	0	0	419	568	429	561	
15	0	0	0	0	454	568	429	560	
0	0	0	0	0	492	568	429	557	
1	0	0	0	0	532	568	428	561	
2	0	0	0	0	560	568	428	561	
3	0	0	0	0	591	568	429	561	
4	0	0	0	0	623	568	429	565	
5	0	0	0	0	636	568	430	561	
6	0	0	0	0	657	568	429	561	
7	0	0	0	0	660	568	429	562	
8	0	0	0	0	627	568	429	558	
9	0	0	0	0	586	568	428	562	
10	0	0	0	0	542	568	429	562	
11	0	0	0	0	480	568	430	562	
12	0	0	0	0	427	568	429	566	
13	0	0	0	0	399	568	430	561	
14	0	0	0	0	373	567	429	561	
15	0	0	0	0	376	567	429	561	
0	0	0	0	0	376	568	429	558	
1	0	0	0	0	390	567	428	562	
2	0	0	0	0	413	567	429	562	
3	0	0	0	0	445	567	429	562	
4	0	0	0	0	487	568	429	565	
5	0	0	0	0	532	567	430	562	
6	0	0	0	0	565	568	429	562	
7	0	0	0	0	594	568	428	562	
8	0	0	0	0	618	567	429	558	
9	0	0	0	0	639	568	428	562	
10	0	0	0	0	661	568	429	561	
11	0	0	0	0	659	568	429	563	
12	0	0	0	0	632	568	430	566	
13	0	0	0	0	590	568	430	562	
14	0	0	0	0	546	568	429	561	
15	0	0	0	0	489	567	429	561	
0	0	0	0	0	438	568	428	558	
1	0	0	0	0	399	568	428	562	
2	0	0	0	0	373	568	429	562	
3	0	0	0	0	372	568	428	562	
4	0	0	0	0	372	568	429	566	
5	0	0	0	0	383	568	430	561	
6	0	0	0	0	414	568	428	561	
7	0	0	0	0	453	568	429	561	
8	0	0	0	0	486	568	428	557	
9	0	0	0	0	529	568	427	562	
10	0	0	0	0	561	568	428	562	
11	0	0	0	0	589	568	429	561	
12	0	0	0	0	617	568	429	565	
13	0	0	0	0	632	568	430	561	
14	0	0	0	0	652	568	430	562	
15	0	0	0	0	660	568	428	561	
0	0	0	0	0	635	568	429	557	
1	0	0	0	0	587	568	428	562	
2	0	0	0	0	536	568	428	561	
3	0	0	0	0	484	568	429	561	
4	0	0	0	0	443	568	428	566	
5	0	0	0	0	404	568	429	562	
6	0	0	0	0	380	568	428	562	
7	0	0	0	0	377	568	429	562	
8	0	0	0	0	372	568	429	558	
9	0	0	0	0	387	568	428	561	
10	0	0	0	0	417	569	428	562	
11	0	0	0	0	450	568	428	561	
12	0	0	0	0	488	568	428	565	
13	0	0	0	0	526	568	429	561	
14	0	0	0	0	563	568	429	561	
15	0	0	0	0	592	568	428	561	
0	0	0	0	0	620	568	428	557	
1	0	0	0	0	641	568	427	561	
2	0	0	0	0	651	568	429	561	
3	0	0	0	0	653	568	429	561	
4	0	0	0	0	630	568	429	565	
5	0	0	0	0	593	569	430	561	
6	0	0	0	0	538	569	429	561	
7	0	0	0	0	483	568	428	561	
8	0	0	0	0	436	568	428	557	
9	0	0	0	0	396	569	428	562	
10	0	0	0	0	369	568	429	561	
11	0	0	0	0	372	569	428	561	
12	0	0	0	0	377	569	428	565	
13	0	0	0	0	389	568	430	561	
14	0	0	0	0	418	569	428	561	
15	0	0	0	0	455	568	428	561	
0	0	0	0	0	490	568	429	557	
1	0	0	0	0	526	569	427	561	
2	0	0	0	0	555	569	428	562	
3	0	0	0	0	588	569	429	560	
4	0	0	0	0	619	569	429	565	
5	0	0	0	0	638	568	430	561	
6	0	0	0	0	659	569	428	561	
7	0	0	0	0	663	569	429	561	
8	0	0	0	0	625	569	429	557	
9	0	0	0	0	589	568	428	561	
10	0	0	0	0	550	568	429	561	
11	0	0	0	0	486	569	429	561	
12	0	0	0	0	440	568	429	565	
13	0	0	0	0	403	568	430	561	
14	0	0	0	0	378	568	429	561	
15	0	0	0	0	375	568	428	561	
0	0	0	0	0	371	568	429	557	
1	0	0	0	0	379	568	428	561	
2	0	0	0	0	415	568	428	562	
3	0	0	0	0	456	568	429	561	
4	0	0	0	0	487	568	429	566	
5	0	0	0	0	526	568	429	561	
6	0	0	0	0	560	568	429	562	
7	0	0	0	0	591	568	428	561	
8	0	0	0	0	620	568	428	557	
9	0	0	0	0	638	568	427	561	
10	0	0	0	0	654	568	429	561	
11	0	0	0	0	653	568	428	561	
12	0	0	0	0	628	569	428	565	
13	0	0	0	0	593	568	429	561	
14	0	0	0	0	546	568	428	561	
15	0	0	0	0	481	568	428	561	
0	0	0	0	0	423	568	428	557	
1	0	0	0	0	403	568	428	561	
2	0	0	0	0	381	568	429	562	
3	0	0	0	0	381	568	428	561	
4	0	0	0	0	377	568	429	565	
5	0	0	0	0	385	568	430	561	
6	0	0	0	0	419	568	428	562	
7	0	0	0	0	454	568	428	561	
8	0	0	0	0	488	568	428	557	
9	0	0	0	0	520	568	428	562	
10	0	0	0	0	551	568	428	561	
11	0	0	0	0	588	568	429	561	
12	0	0	0	0	627	568	429	564	
13	0	0	0	0	642	568	429	561	
14	0	0	0	0	657	568	428	560	
15	0	0	0	0	656	568	429	560	
0	0	0	0	0	624	568	429	557	
1	0	0	0	0	588	568	428	561	
2	0	0	0	0	545	568	429	561	
3	0	0	0	0	490	568	428	561	
4	0	0	0	0	432	568	428	565	
5	0	0	0	0	399	568	429	561	
6	0	0	0	0	379	568	429	561	
7	0	0	0	0	381	568	429	561	
8	0	0	0	0	376	568	429	558	
9	0	0	0	0	384	568	428	561	
10	0	0	0	0	414	568	429	561	
11	0	0	0	0	450	568	429	561	
12	0	0	0	0	483	568	430	564	
13	0	0	0	0	522	569	430	561	
14	0	0	0	0	566	569	429	561	
15	0	0	0	0	600	569	429	560	
0	0	0	0	0	623	568	429	556	
1	0	0	0	0	636	569	428	560	
2	0	0	0	0	655	569	429	560	
3	0	0	0	0	659	569	428	560	
4	0	0	0	0	631	569	430	564	
5	0	0	0	0	591	569	430	560	
6	0	0	0	0	537	570	428	560	
7	0	0	0	0	484	569	429	560	
8	0	0	0	0	432	569	428	556	
9	0	0	0	0	400	569	427	561	
10	0	0	0	0	375	569	429	561	
11	0	0	0	0	375	569	429	561	
12	0	0	0	0	376	569	429	564	
13	0	0	0	0	384	568	430	561	
14	0	0	0	0	415	568	428	560	
15	0	0	0	0	451	569	429	560	
0	0	0	0	0	493	568	428	556	
1	0	0	0	0	523	569	428	560	
2	0	0	0	0	556	568	428	560	
3	0	0	0	0	595	569	429	560	
4	0	0	0	0	632	568	429	564	
5	0	0	0	0	641	568	430	560	
6	0	0	0	0	656	568	429	560	
7	0	0	0	0	662	568	429	560	
8	0	0	0	0	627	569	429	556	
9	0	0	0	0	590	568	428	560	
10	0	0	0	0	540	569	428	560	
11	0	0	0	0	466	569	428	561	
12	0	0	0	0	421	569	428	564	
13	0	0	0	0	411	569	429	560	
14	0	0	0	0	399	569	428	561	
15	0	0	0	0	384	569	428	560	
0	0	0	0	0	376	569	428	556	
1	0	0	0	0	381	568	428	560	
2	0	0	0	0	411	569	428	560	
3	0	0	0	0	452	569	428	560	
4	0	0	0	0	492	569	429	564	
5	0	0	0	0	529	568	429	561	
6	0	0	0	0	555	569	428	561	
7	0	0	0	0	583	569	428	560	
8	0	0	0	0	608	568	428	557	
9	0	0	0	0	639	569	428	561	
10	0	0	0	0	671	568	428	560	
11	0	0	0	0	664	568	428	561	
12	0	0	0	0	628	568	428	564	
13	0	0	0	0	586	568	429	561	
14	0	0	0	0	541	568	428	561	
15	0	0	0	0	483	568	428	561	
0	0	0	0	0	437	568	428	557	
1	0	0	0	0	397	568	427	561	
2	0	0	0	0	373	568	428	561	
3	0	0	0	0	372	568	428	561	
4	0	0	0	0	372	568	428	565	
5	0	0	0	0	383	568	429	561	
6	0	0	0	0	415	568	428	561	
7	0	0	0	0	454	568	428	561	
8	0	0	0	0	492	568	428	557	
9	0	0	0	0	529	567	427	561	
10	0	0	0	0	560	568	429	562	
11	0	0	0	0	595	567	428	561	
12	0	0	0	0	620	567	429	565	
13	0	0	0	0	632	568	429	561	
14	0	0	0	0	655	568	428	561	
15	0	0	0	0	667	567	428	560	
0	0	0	0	0	635	567	428	557	
1	0	0	0	0	587	568	427	561	
2	0	0	0	0	538	567	428	561	
3	0	0	0	0	481	567	428	561	
4	0	0	0	0	429	568	429	564	
5	0	0	0	0	401	568	429	560	
6	0	0	0	0	377	568	428	561	
7	0	0	0	0	380	568	428	560	
8	0	0	0	0	378	568	428	558	
9	0	0	0	0	392	568	428	561	
10	0	0	0	0	417	567	428	561	
11	0	0	0	0	449	568	428	561	
12	0	0	0	0	491	568	428	564	
13	0	0	0	0	527	568	429	561	
14	0	0	0	0	554	568	428	561	
15	0	0	0	0	594	568	428	561	
0	0	0	0	0	622	568	428	557	
1	0	0	0	0	632	568	427	561	
2	0	0	0	0	652	568	428	561	
3	0	0	0	0	659	568	428	561	
4	0	0	0	0	640	568	428	565	
5	0	0	0	0	595	568	429	561	
6	0	0	0	0	537	567	429	561	
7	0	0	0	0	475	568	429	561	
8	0	0	0	0	432	568	428	557	
9	0	0	0	0	402	568	428	561	
10	0	0	0	0	382	568	428	561	
11	0	0	0	0	380	567	429	561	
12	0	0	0	0	376	568	428	565	
13	0	0	0	0	384	568	429	561	
14	0	0	0	0	418	567	429	561	
15	0	0	0	0	455	568	429	561	
0	0	0	0	0	489	568	429	558	
1	0	0	0	0	528	568	428	561	
2	0	0	0	0	558	568	429	561	
3	0	0	0	0	586	568	429	561	
4	0	0	0	0	616	567	429	564	
5	0	0	0	0	632	568	430	561	
6	0	0	0	0	653	568	429	560	
7	0	0	0	0	662	568	430	560	
8	0	0	0	0	638	568	429	556	
9	0	0	0	0	591	568	428	561	
10	0	0	0	0	539	568	429	561	
11	0	0	0	0	478	568	429	561	
12	0	0	0	0	441	568	429	566	
13	0	0	0	0	403	568	431	562	
14	0	0	0	0	376	568	429	561	
15	0	0	0	0	372	568	428	561	
0	0	0	0	0	375	568	429	557	
1	0	0	0	0	386	568	428	561	
2	0	0	0	0	418	568	429	561	
3	0	0	0	0	455	568	429	561	
4	0	0	0	0	485	569	429	565	
5	0	0	0	0	523	568	430	561	
6	0	0	0	0	555	569	429	561	
7	0	0	0	0	581	568	429	561	
8	0	0	0	0	619	568	429	558	
9	0	0	0	0	633	568	428	560	
10	0	0	0	0	659	568	429	561	
11	0	0	0	0	660	568	429	561	
12	0	0	0	0	634	568	430	565	
13	0	0	0	0	594	568	430	561	
14	0	0	0	0	538	568	429	561	
15	0	0	0	0	482	568	429	561	
0	0	0	0	0	438	568	428	557	
1	0	0	0	0	409	568	428	561	
2	0	0	0	0	383	568	429	561	
3	0	0	0	0	374	568	429	561	
4	0	0	0	0	374	568	429	565	
5	0	0	0	0	387	567	430	561	
6	0	0	0	0	423	568	429	562	
7	0	0	0	0	453	567	429	561	
8	0	0	0	0	488	567	429	558	
9	0	0	0	0	530	567	428	563	
10	0	0	0	0	556	568	430	562	
11	0	0	0	0	591	567	429	561	
12	0	0	0	0	619	568	429	566	
13	0	0	0	0	634	567	430	561	
14	0	0	0	0	653	567	429	561	
15	0	0	0	0	660	568	429	561	
0	0	0	0	0	627	568	429	558	
1	0	0	0	0	589	567	427	562	
2	0	0	0	0	544	567	429	561	
3	0	0	0	0	485	567	430	562	
4	0	0	0	0	433	567	429	566	
5	0	0	0	0	397	567	430	562	
6	0	0	0	0	372	567	430	562	
7	0	0	0	0	372	567	429	561	
8	0	0	0	0	371	567	429	558	
9	0	0	0	0	385	567	428	561	
10	0	0	0	0	416	567	429	562	
11	0	0	0	0	458	567	429	562	
12	0	0	0	0	496	566	429	566	
13	0	0	0	0	530	567	430	561	
14	0	0	0	0	556	567	429	561	
15	0	0	0	0	591	567	430	561	
0	0	0	0	0	623	567	429	557	
1	0	0	0	0	643	567	428	561	
2	0	0	0	0	657	566	430	561	
3	0	0	0	0	652	566	429	561	
4	0	0	0	0	626	566	430	565	
5	0	0	0	0	585	567	430	561	
6	0	0	0	0	541	567	429	561	
7	0	0	0	0	482	566	429	562	
8	0	0	0	0	433	567	429	558	
9	0	0	0	0	403	566	428	561	
10	0	0	0	0	381	566	428	562	
11	0	0	0	0	376	567	429	561	
12	0	0	0	0	371	566	429	565	
13	0	0	0	0	382	567	430	562	
14	0	0	0	0	417	567	429	562	
15	0	0	0	0	454	566	429	562	
0	0	0	0	0	493	568	429	557	
1	0	0	0	0	534	567	428	562	
2	0	0	0	0	560	567	428	561	
3	0	0	0	0	588	567	429	562	
4	0	0	0	0	613	567	429	565	
5	0	0	0	0	636	567	430	561	
6	0	0	0	0	657	567	428	561	
7	0	0	0	0	667	567	429	562	
8	0	0	0	0	634	567	428	558	
9	0	0	0	0	591	567	427	561	
10	0	0	0	0	538	567	428	562	
11	0	0	0	0	481	568	429	563	
12	0	0	0	0	435	567	429	566	
13	0	0	0	0	402	567	429	561	
14	0	0	0	0	376	568	429	561	
15	0	0	0	0	369	568	428	561	
0	0	0	0	0	367	567	428	558	
1	0	0	0	0	378	567	428	561	
2	0	0	0	0	423	567	428	562	
3	0	0	0	0	464	567	428	561	
4	0	0	0	0	497	567	429	565	
5	0	0	0	0	525	567	429	562	
6	0	0	0	0	556	567	428	562	
7	0	0	0	0	590	568	428	561	
8	0	0	0	0	616	567	428	558	
9	0	0	0	0	636	567	428	562	
10	0	0	0	0	657	567	428	562	
11	0	0	0	0	662	567	428	562	
12	0	0	0	0	630	567	429	566	
13	0	0	0	0	592	568	428	562	
14	0	0	0	0	542	568	428	562	
15	0	0	0	0	482	567	428	562	
0	0	0	0	0	432	568	428	558	
1	0	0	0	0	396	568	427	563	
2	0	0	0	0	363	568	428	562	
3	0	0	0	0	371	568	428	562	
4	0	0	0	0	386	568	428	566	
5	0	0	0	0	394	567	430	562	
6	0	0	0	0	426	568	428	562	
7	0	0	0	0	457	568	428	561	
8	0	0	0	0	492	568	429	558	
9	0	0	0	0	532	568	428	562	
10	0	0	0	0	561	568	428	562	
11	0	0	0	0	588	567	428	562	
12	0	0	0	0	616	568	429	566	
13	0	0	0	0	636	568	430	562	
14	0	0	0	0	656	568	429	562	
15	0	0	0	0	664	568	429	562	
0	0	0	0	0	624	567	429	558	
1	0	0	0	0	581	568	428	562	
2	0	0	0	0	535	568	429	561	
3	0	0	0	0	481	567	429	561	
4	0	0	0	0	439	567	428	565	
5	0	0	0	0	400	568	429	561	
6	0	0	0	0	366	568	428	561	
7	0	0	0	0	369	568	428	562	
8	0	0	0	0	377	568	429	557	
9	0	0	0	0	387	567	428	561	
10	0	0	0	0	420	568	428	561	
11	0	0	0	0	456	567	428	561	
12	0	0	0	0	486	567	428	565	
13	0	0	0	0	524	568	429	561	
14	0	0	0	0	565	568	428	561	
15	0	0	0	0	596	567	428	561	
0	0	0	0	0	620	567	429	558	
1	0	0	0	0	636	567	428	561	
2	0	0	0	0	653	568	429	562	
3	0	0	0	0	662	567	429	561	
4	0	0	0	0	635	567	429	565	
5	0	0	0	0	592	567	430	562	
6	0	0	0	0	540	567	429	562	
7	0	0	0	0	480	567	429	562	
8	0	0	0	0	433	567	428	558	
9	0	0	0	0	398	567	427	561	
10	0	0	0	0	372	567	429	562	
11	0	0	0	0	373	567	429	562	
12	0	0	0	0	377	567	429	565	
13	0	0	0	0	383	567	430	561	
14	0	0	0	0	414	567	429	561	
15	0	0	0	0	459	567	428	561	
0	0	0	0	0	494	567	429	557	
1	0	0	0	0	528	567	428	561	
2	0	0	0	0	559	567	430	560	
3	0	0	0	0	591	568	429	561	
4	0	0	0	0	622	568	429	565	
5	0	0	0	0	638	568	430	561	
6	0	0	0	0	657	568	430	562	
7	0	0	0	0	661	567	429	561	
8	0	0	0	0	632	568	428	558	
9	0	0	0	0	593	568	428	561	
10	0	0	0	0	538	568	428	561	
11	0	0	0	0	482	568	429	561	
12	0	0	0	0	435	568	429	566	
13	0	0	0	0	396	567	429	562	
14	0	0	0	0	367	567	429	562	
15	0	0	0	0	373	567	429	561	
0	0	0	0	0	379	567	429	558	
1	0	0	0	0	386	567	428	562	
2	0	0	0	0	415	568	429	562	
3	0	0	0	0	455	567	429	562	
4	0	0	0	0	492	568	429	565	
5	0	0	0	0	534	568	430	562	
6	0	0	0	0	562	568	428	562	
7	0	0	0	0	591	568	429	562	
8	0	0	0	0	622	567	428	557	
9	0	0	0	0	639	568	428	561	
10	0	0	0	0	649	568	428	561	
11	0	0	0	0	651	568	428	561	
12	0	0	0	0	625	568	429	566	
13	0	0	0	0	584	568	429	562	
14	0	0	0	0	537	568	428	562	
15	0	0	0	0	486	568	428	562	
0	0	0	0	0	444	568	429	557	
1	0	0	0	0	406	568	428	561	
2	0	0	0	0	376	568	428	561	
3	0	0	0	0	376	568	428	561	
4	0	0	0	0	376	568	428	566	
5	0	0	0	0	383	568	430	561	
6	0	0	0	0	415	568	428	561	
7	0	0	0	0	448	568	428	562	
8	0	0	0	0	480	568	428	558	
9	0	0	0	0	529	568	428	561	
10	0	0	0	0	566	568	429	562	
11	0	0	0	0	600	568	428	561	
12	0	0	0	0	625	568	430	565	
13	0	0	0	0	637	568	430	561	
14	0	0	0	0	655	568	429	561	
15	0	0	0	0	660	568	429	561	
0	0	0	0	0	632	568	429	557	
1	0	0	0	0	588	568	428	561	
2	0	0	0	0	537	568	428	561	
3	0	0	0	0	481	568	429	561	
4	0	0	0	0	429	568	429	565	
5	0	0	0	0	397	569	429	561	
6	0	0	0	0	382	568	428	561	
7	0	0	0	0	376	568	429	561	
8	0	0	0	0	375	568	429	558	
9	0	0	0	0	395	568	428	561	
10	0	0	0	0	419	568	428	562	
11	0	0	0	0	454	568	429	561	
12	0	0	0	0	493	568	428	565	
13	0	0	0	0	529	568	430	561	
14	0	0	0	0	564	568	429	561	
15	0	0	0	0	588	568	428	561	
0	0	0	0	0	607	568	428	557	
1	0	0	0	0	633	569	428	561	
2	0	0	0	0	659	569	429	561	
3	0	0	0	0	656	568	429	561	
4	0	0	0	0	630	568	429	565	
5	0	0	0	0	591	568	430	561	
6	0	0	0	0	547	569	429	561	
7	0	0	0	0	486	569	429	561	
8	0	0	0	0	429	569	429	558	
9	0	0	0	0	396	569	428	561	
10	0	0	0	0	377	569	428	561	
11	0	0	0	0	374	569	428	561	
12	0	0	0	0	377	569	429	565	
13	0	0	0	0	389	569	430	561	
14	0	0	0	0	416	569	428	561	
15	0	0	0	0	447	569	429	561	
0	0	0	0	0	489	569	429	558	
1	0	0	0	0	529	569	428	561	
2	0	0	0	0	563	569	429	562	
3	0	0	0	0	592	569	428	561	
4	0	0	0	0	617	568	429	566	
5	0	0	0	0	636	569	430	561	
6	0	0	0	0	655	568	429	562	
7	0	0	0	0	658	568	428	561	
8	0	0	0	0	632	568	428	558	
9	0	0	0	0	595	568	428	562	
10	0	0	0	0	540	568	428	561	
11	0	0	0	0	480	568	429	562	
12	0	0	0	0	434	569	429	566	
13	0	0	0	0	399	568	429	561	
14	0	0	0	0	368	569	428	561	
15	0	0	0	0	364	568	429	561	
0	0	0	0	0	373	568	429	557	
1	0	0	0	0	388	568	428	562	
2	0	0	0	0	422	568	428	561	
3	0	0	0	0	460	568	429	561	
4	0	0	0	0	495	568	429	565	
5	0	0	0	0	528	568	429	561	
6	0	0	0	0	559	568	428	562	
7	0	0	0	0	593	568	428	561	
8	0	0	0	0	620	567	429	557	
9	0	0	0	0	640	568	427	561	
10	0	0	0	0	663	568	428	561	
11	0	0	0	0	659	568	429	561	
12	0	0	0	0	628	568	429	564	
13	0	0	0	0	588	568	430	560	
14	0	0	0	0	536	568	429	560	
15	0	0	0	0	476	568	429	561	
0	0	0	0	0	434	568	428	557	
1	0	0	0	0	404	568	428	561	
2	0	0	0	0	376	567	429	561	
3	0	0	0	0	373	568	429	561	
4	0	0	0	0	374	568	429	565	
5	0	0	0	0	387	568	429	561	
6	0	0	0	0	415	568	428	561	
7	0	0	0	0	451	567	430	561	
8	0	0	0	0	495	568	429	557	
9	0	0	0	0	534	568	428	561	
10	0	0	0	0	561	568	429	561	
11	0	0	0	0	593	568	428	561	
12	0	0	0	0	621	568	430	565	
13	0	0	0	0	633	567	430	561	
14	0	0	0	0	655	567	428	561	
15	0	0	0	0	660	567	429	561	
0	0	0	0	0	630	568	429	558	
1	0	0	0	0	592	567	428	562	
2	0	0	0	0	538	567	429	562	
3	0	0	0	0	480	567	429	561	
4	0	0	0	0	431	567	429	566	
5	0	0	0	0	391	567	430	561	
6	0	0	0	0	361	568	429	561	
7	0	0	0	0	375	568	429	562	
8	0	0	0	0	384	567	429	558	
9	0	0	0	0	399	567	428	561	
10	0	0	0	0	420	567	429	561	
11	0	0	0	0	455	567	429	562	
12	0	0	0	0	488	568	428	565	
13	0	0	0	0	523	568	430	562	
14	0	0	0	0	558	568	429	562	
15	0	0	0	0	592	567	430	562	
0	0	0	0	0	616	567	428	558	
1	0	0	0	0	643	568	428	561	
2	0	0	0	0	660	568	429	561	
3	0	0	0	0	660	567	429	561	
4	0	0	0	0	625	568	429	565	
5	0	0	0	0	588	568	430	561	
6	0	0	0	0	537	568	428	561	
7	0	0	0	0	480	568	428	561	
8	0	0	0	0	436	568	429	557	
9	0	0	0	0	403	568	428	561	
10	0	0	0	0	378	568	428	561	
11	0	0	0	0	376	568	428	561	
12	0	0	0	0	375	568	429	565	
13	0	0	0	0	385	568	430	561	
14	0	0	0	0	411	568	429	561	
15	0	0	0	0	453	568	429	561	
0	0	0	0	0	491	568	428	557	
1	0	0	0	0	531	568	427	561	
2	0	0	0	0	569	568	428	561	
3	0	0	0	0	592	568	428	561	
4	0	0	0	0	617	568	429	565	
5	0	0	0	0	632	568	430	560	
6	0	0	0	0	649	568	429	561	
7	0	0	0	0	653	568	428	560	
8	0	0	0	0	621	567	428	557	
9	0	0	0	0	591	568	428	561	
10	0	0	0	0	546	568	428	561	
11	0	0	0	0	490	568	429	562	
12	0	0	0	0	436	568	429	565	
13	0	0	0	0	396	568	429	561	
14	0	0	0	0	373	568	429	561	
15	0	0	0	0	382	568	428	561	
0	0	0	0	0	377	568	428	557	
1	0	0	0	0	384	568	427	561	
2	0	0	0	0	415	568	428	561	
3	0	0	0	0	456	568	428	561	
4	0	0	0	0	495	568	429	566	
5	0	0	0	0	526	568	430	561	
6	0	0	0	0	551	568	429	561	
7	0	0	0	0	595	568	429	561	
8	0	0	0	0	624	568	428	558	
9	0	0	0	0	643	568	427	561	
10	0	0	0	0	661	568	429	561	
11	0	0	0	0	659	568	429	561	
12	0	0	0	0	627	568	429	566	
13	0	0	0	0	586	568	429	561	
14	0	0	0	0	532	567	428	561	
15	0	0	0	0	473	568	429	562	
0	0	0	0	0	434	568	428	557	
1	0	0	0	0	403	567	428	560	
2	0	0	0	0	378	567	429	561	
3	0	0	0	0	376	568	430	561	
4	0	0	0	0	376	568	429	565	
5	0	0	0	0	391	568	430	561	
6	0	0	0	0	418	568	428	561	
7	0	0	0	0	456	568	428	561	
8	0	0	0	0	493	568	428	557	
9	0	0	0	0	528	568	428	561	
10	0	0	0	0	559	568	429	561	
11	0	0	0	0	595	568	429	561	
12	0	0	0	0	621	567	429	565	
13	0	0	0	0	635	568	430	561	
14	0	0	0	0	655	567	429	561	
15	0	0	0	0	655	567	428	561	
0	0	0	0	0	624	567	429	557	
1	0	0	0	0	582	567	427	561	
2	0	0	0	0	532	567	429	561	
3	0	0	0	0	479	567	429	561	
4	0	0	0	0	428	567	429	565	
5	0	0	0	0	407	567	430	561	
6	0	0	0	0	388	567	428	562	
7	0	0	0	0	384	567	429	562	
8	0	0	0	0	382	567	428	558	
9	0	0	0	0	391	567	428	563	
10	0	0	0	0	419	568	429	562	
11	0	0	0	0	453	568	429	562	
12	0	0	0	0	485	567	430	565	
13	0	0	0	0	528	568	430	562	
14	0	0	0	0	564	567	429	561	
15	0	0	0	0	595	567	430	561	
0	0	0	0	0	624	568	429	558	
1	0	0	0	0	641	568	428	561	
2	0	0	0	0	657	568	429	562	
3	0	0	0	0	656	567	429	561	
4	0	0	0	0	626	567	429	566	
5	0	0	0	0	582	567	430	561	
6	0	0	0	0	529	567	429	561	
7	0	0	0	0	471	568	429	561	
8	0	0	0	0	429	567	428	557	
9	0	0	0	0	399	567	428	562	
10	0	0	0	0	377	567	429	562	
11	0	0	0	0	378	567	429	562	
12	0	0	0	0	377	567	429	566	
13	0	0	0	0	389	567	430	562	
14	0	0	0	0	419	567	429	562	
15	0	0	0	0	447	567	429	562	
0	0	0	0	0	479	567	428	558	
1	0	0	0	0	533	567	428	562	
2	0	0	0	0	566	568	428	562	
3	0	0	0	0	591	567	429	561	
4	0	0	0	0	621	567	430	565	
5	0	0	0	0	640	567	430	561	
6	0	0	0	0	657	568	429	562	
7	0	0	0	0	663	567	429	561	
8	0	0	0	0	628	567	429	557	
9	0	0	0	0	593	567	428	562	
10	0	0	0	0	543	567	430	562	
11	0	0	0	0	483	567	429	562	
12	0	0	0	0	435	567	429	566	
13	0	0	0	0	395	567	430	561	
14	0	0	0	0	373	567	429	561	
15	0	0	0	0	378	568	429	562	
0	0	0	0	0	374	567	429	557	
1	0	0	0	0	385	567	428	561	
2	0	0	0	0	410	567	429	562	
3	0	0	0	0	446	567	429	561	
4	0	0	0	0	490	568	430	566	
5	0	0	0	0	537	568	430	561	
6	0	0	0	0	564	568	429	562	
7	0	0	0	0	595	567	429	561	
8	0	0	0	0	622	568	428	558	
9	0	0	0	0	640	568	428	561	
10	0	0	0	0	664	568	428	562	
11	0	0	0	0	662	568	429	561	
12	0	0	0	0	624	568	429	566	
13	0	0	0	0	586	568	429	561	
14	0	0	0	0	536	568	429	561	
15	0	0	0	0	485	568	428	561	
0	0	0	0	0	434	568	429	558	
1	0	0	0	0	398	568	428	561	
2	0	0	0	0	375	568	428	561	
3	0	0	0	0	375	568	429	562	
4	0	0	0	0	376	568	429	565	
5	0	0	0	0	386	568	430	561	
6	0	0	0	0	419	568	428	561	
7	0	0	0	0	455	568	428	561	
8	0	0	0	0	492	568	429	558	
9	0	0	0	0	529	568	428	561	
10	0	0	0	0	561	568	428	561	
11	0	0	0	0	591	568	429	562	
12	0	0	0	0	613	567	428	566	
13	0	0	0	0	632	568	430	561	
14	0	0	0	0	652	568	429	562	
15	0	0	0	0	659	567	428	561	
0	0	0	0	0	628	567	429	558	
1	0	0	0	0	593	568	428	562	
2	0	0	0	0	550	568	430	562	
3	0	0	0	0	484	567	429	562	
4	0	0	0	0	432	568	429	565	
5	0	0	0	0	394	567	430	562	
6	0	0	0	0	369	567	428	562	
7	0	0	0	0	367	567	430	561	
8	0	0	0	0	377	567	428	558	
9	0	0	0	0	392	567	428	562	
10	0	0	0	0	421	567	429	562	
11	0	0	0	0	448	567	429	562	
12	0	0	0	0	488	567	429	566	
13	0	0	0	0	529	568	429	562	
14	0	0	0	0	552	568	429	562	
15	0	0	0	0	596	567	429	562	
0	0	0	0	0	627	567	429	558	
1	0	0	0	0	643	567	428	562	
2	0	0	0	0	659	567	429	562	
3	0	0	0	0	661	567	428	562	
4	0	0	0	0	628	567	429	566	
5	0	0	0	0	584	567	430	563	
6	0	0	0	0	537	568	428	562	
7	0	0	0	0	481	566	429	561	
8	0	0	0	0	434	566	429	558	
9	0	0	0	0	403	567	428	561	
10	0	0	0	0	375	567	428	561	
11	0	0	0	0	375	567	428	561	
12	0	0	0	0	377	567	428	564	
13	0	0	0	0	384	567	430	561	
14	0	0	0	0	415	567	429	562	
15	0	0	0	0	451	567	429	561	
0	0	0	0	0	491	567	429	558	
1	0	0	0	0	531	567	428	562	
2	0	0	0	0	566	567	429	562	
3	0	0	0	0	593	567	429	562	
4	0	0	0	0	621	567	429	565	
5	0	0	0	0	638	567	430	561	
6	0	0	0	0	653	567	428	561	
7	0	0	0	0	656	567	429	561	
8	0	0	0	0	632	567	428	558	
9	0	0	0	0	583	567	428	561	
10	0	0	0	0	528	567	429	561	
11	0	0	0	0	475	567	429	561	
12	0	0	0	0	434	567	429	565	
13	0	0	0	0	403	567	430	561	
14	0	0	0	0	376	568	428	561	
15	0	0	0	0	380	567	429	561	
0	0	0	0	0	374	568	429	558	
1	0	0	0	0	380	568	428	561	
2	0	0	0	0	421	568	428	561	
3	0	0	0	0	462	568	429	561	
4	0	0	0	0	499	568	428	565	
5	0	0	0	0	532	568	430	561	
6	0	0	0	0	559	568	429	561	
7	0	0	0	0	587	568	429	561	
8	0	0	0	0	613	568	428	556	
9	0	0	0	0	636	568	428	561	
10	0	0	0	0	656	568	428	561	
11	0	0	0	0	664	568	428	561	
12	0	0	0	0	637	568	429	565	
13	0	0	0	0	592	568	429	561	
14	0	0	0	0	537	569	429	561	
15	0	0	0	0	479	568	428	561	
0	0	0	0	0	435	568	428	557	
1	0	0	0	0	401	568	428	561	
2	0	0	0	0	373	568	428	561	
3	0	0	0	0	368	568	428	561	
4	0	0	0	0	371	568	429	565	
5	0	0	0	0	394	568	430	561	
6	0	0	0	0	423	568	428	561	
7	0	0	0	0	444	568	429	561	
8	0	0	0	0	489	568	429	557	
9	0	0	0	0	540	568	428	561	
10	0	0	0	0	568	568	428	561	
11	0	0	0	0	589	568	428	561	
12	0	0	0	0	616	568	428	564	
13	0	0	0	0	635	568	430	560	
14	0	0	0	0	652	568	430	561	
15	0	0	0	0	652	568	429	561	
0	0	0	0	0	629	568	429	558	
1	0	0	0	0	592	568	428	561	
2	0	0	0	0	541	568	429	562	
3	0	0	0	0	479	568	429	561	
4	0	0	0	0	427	567	429	566	
5	0	0	0	0	403	568	430	562	
6	0	0	0	0	379	568	429	561	
7	0	0	0	0	377	567	430	561	
8	0	0	0	0	377	567	428	558	
9	0	0	0	0	388	568	428	561	
10	0	0	0	0	417	568	429	561	
11	0	0	0	0	450	568	429	561	
12	0	0	0	0	487	568	429	565	
13	0	0	0	0	532	568	430	562	
14	0	0	0	0	565	568	428	561	
15	0	0	0	0	593	568	428	561	
0	0	0	0	0	620	568	428	558	
1	0	0	0	0	646	567	427	561	
2	0	0	0	0	655	567	428	561	
3	0	0	0	0	649	567	428	561	
4	0	0	0	0	622	568	429	565	
5	0	0	0	0	596	568	429	561	
6	0	0	0	0	540	568	428	561	
7	0	0	0	0	483	568	428	561	
8	0	0	0	0	433	567	428	557	
9	0	0	0	0	400	567	428	561	
10	0	0	0	0	378	567	428	561	
11	0	0	0	0	377	568	429	562	
12	0	0	0	0	372	568	428	565	
13	0	0	0	0	380	568	430	561	
14	0	0	0	0	415	567	428	561	
15	0	0	0	0	456	568	428	561	
0	0	0	0	0	492	568	429	557	
1	0	0	0	0	533	567	428	561	
2	0	0	0	0	561	568	428	561	
3	0	0	0	0	589	567	428	561	
4	0	0	0	0	615	568	429	564	
5	0	0	0	0	640	567	429	560	
6	0	0	0	0	662	567	428	561	
7	0	0	0	0	657	567	428	560	
8	0	0	0	0	628	567	429	556	
9	0	0	0	0	594	568	428	561	
10	0	0	0	0	544	568	428	561	
11	0	0	0	0	483	568	429	560	
12	0	0	0	0	430	568	429	564	
13	0	0	0	0	393	568	430	561	
14	0	0	0	0	370	568	429	561	
15	0	0	0	0	372	568	428	560	
0	0	0	0	0	376	568	428	557	
1	0	0	0	0	390	568	428	561	
2	0	0	0	0	420	568	429	561	
3	0	0	0	0	454	568	428	561	
4	0	0	0	0	492	568	429	565	
5	0	0	0	0	531	568	430	561	
6	0	0	0	0	563	568	428	561	
7	0	0	0	0	594	568	430	561	
8	0	0	0	0	617	568	428	557	
9	0	0	0	0	638	568	428	561	
10	0	0	0	0	657	568	429	562	
11	0	0	0	0	657	568	428	562	
12	0	0	0	0	627	568	429	565	
13	0	0	0	0	586	568	430	561	
14	0	0	0	0	532	568	428	561	
15	0	0	0	0	475	568	429	561	
0	0	0	0	0	433	568	428	557	
1	0	0	0	0	388	568	428	561	
2	0	0	0	0	380	568	429	561	
3	0	0	0	0	395	568	429	561	
4	0	0	0	0	380	568	429	565	
5	0	0	0	0	386	568	430	562	
6	0	0	0	0	415	568	429	561	
7	0	0	0	0	455	568	429	561	
8	0	0	0	0	495	568	429	558	
9	0	0	0	0	528	568	428	561	
10	0	0	0	0	563	568	429	561	
11	0	0	0	0	595	568	428	562	
12	0	0	0	0	620	568	428	565	
13	0	0	0	0	637	568	429	561	
14	0	0	0	0	657	568	429	561	
15	0	0	0	0	656	568	428	560	
0	0	0	0	0	624	568	429	558	
1	0	0	0	0	583	568	428	561	
2	0	0	0	0	540	567	428	561	
3	0	0	0	0	488	568	428	561	
4	0	0	0	0	438	568	429	565	
5	0	0	0	0	396	568	430	561	
6	0	0	0	0	364	568	428	561	
7	0	0	0	0	367	568	429	561	
8	0	0	0	0	373	568	429	558	
9	0	0	0	0	390	568	428	561	
10	0	0	0	0	425	568	429	561	
11	0	0	0	0	457	568	428	561	
12	0	0	0	0	491	568	428	564	
13	0	0	0	0	526	568	430	561	
14	0	0	0	0	568	568	428	561	
15	0	0	0	0	597	568	428	561	
0	0	0	0	0	620	567	428	557	
1	0	0	0	0	638	568	427	561	
2	0	0	0	0	653	567	428	561	
3	0	0	0	0	658	567	429	562	
4	0	0	0	0	618	568	428	565	
5	0	0	0	0	590	568	430	561	
6	0	0	0	0	540	568	428	561	
7	0	0	0	0	483	567	428	561	
8	0	0	0	0	435	568	428	558	
9	0	0	0	0	393	567	427	561	
10	0	0	0	0	372	567	428	561	
11	0	0	0	0	371	568	429	561	
12	0	0	0	0	377	568	428	565	
13	0	0	0	0	390	567	429	561	
14	0	0	0	0	420	568	428	561	
15	0	0	0	0	457	568	429	561	
0	0	0	0	0	494	567	428	558	
1	0	0	0	0	532	568	427	561	
2	0	0	0	0	564	567	428	561	
3	0	0	0	0	592	567	428	561	
4	0	0	0	0	617	567	428	565	
5	0	0	0	0	627	568	430	561	
6	0	0	0	0	641	567	428	561	
7	0	0	0	0	656	568	429	561	
8	0	0	0	0	644	568	428	557	
9	0	0	0	0	599	567	427	561	
10	0	0	0	0	540	568	428	561	
11	0	0	0	0	481	568	428	561	
12	0	0	0	0	439	567	428	565	
13	0	0	0	0	402	568	429	561	
14	0	0	0	0	376	567	428	561	
15	0	0	0	0	374	568	428	561	
0	0	0	0	0	371	568	428	558	
1	0	0	0	0	382	567	427	561	
2	0	0	0	0	420	568	428	561	
3	0	0	0	0	459	568	428	561	
4	0	0	0	0	492	568	428	565	
5	0	0	0	0	525	568	429	561	
6	0	0	0	0	558	568	428	561	
7	0	0	0	0	588	567	428	561	
8	0	0	0	0	622	568	428	557	
9	0	0	0	0	635	568	428	561	
10	0	0	0	0	651	567	428	561	
11	0	0	0	0	656	568	428	561	
12	0	0	0	0	628	568	429	565	
13	0	0	0	0	584	568	429	561	
14	0	0	0	0	534	568	429	561	
15	0	0	0	0	486	568	428	561	
0	0	0	0	0	445	568	429	557	
1	0	0	0	0	407	568	428	561	
2	0	0	0	0	380	568	428	562	
3	0	0	0	0	382	568	428	561	
4	0	0	0	0	376	568	429	564	
5	0	0	0	0	383	568	429	560	
6	0	0	0	0	415	568	428	561	
7	0	0	0	0	448	568	428	561	
8	0	0	0	0	484	568	428	557	
9	0	0	0	0	523	568	428	561	
10	0	0	0	0	565	568	429	561	
11	0	0	0	0	596	568	429	561	
12	0	0	0	0	616	568	429	564	
13	0	0	0	0	628	568	430	561	
14	0	0	0	0	655	568	429	561	
15	0	0	0	0	655	568	429	561	
0	0	0	0	0	619	568	428	558	
1	0	0	0	0	580	568	428	561	
2	0	0	0	0	550	568	429	561	
3	0	0	0	0	494	568	428	561	
4	0	0	0	0	443	568	428	565	
5	0	0	0	0	409	568	429	561	
6	0	0	0	0	389	569	429	562	
7	0	0	0	0	387	569	429	561	
8	0	0	0	0	383	568	429	558	
9	0	0	0	0	386	569	428	561	
10	0	0	0	0	407	568	430	561	
11	0	0	0	0	446	568	428	561	
12	0	0	0	0	491	568	430	565	
13	0	0	0	0	524	568	430	561	
14	0	0	0	0	554	568	429	561	
15	0	0	0	0	579	568	429	561	
0	0	0	0	0	602	568	429	557	
1	0	0	0	0	626	568	428	561	
2	0	0	0	0	649	568	430	562	
3	0	0	0	0	655	568	429	561	
4	0	0	0	0	629	568	430	566	
5	0	0	0	0	595	568	430	561	
6	0	0	0	0	545	568	429	561	
7	0	0	0	0	494	568	429	561	
8	0	0	0	0	453	568	428	557	
9	0	0	0	0	415	568	428	561	
10	0	0	0	0	391	568	428	561	
11	0	0	0	0	383	568	429	561	
12	0	0	0	0	384	568	429	565	
13	0	0	0	0	393	568	430	561	
14	0	0	0	0	416	568	429	561	
15	0	0	0	0	450	568	428	561	
0	0	0	0	0	486	568	429	557	
1	0	0	0	0	516	568	428	561	
2	0	0	0	0	542	568	429	561	
3	0	0	0	0	566	568	429	561	
4	0	0	0	0	585	568	430	565	
5	0	0	0	0	600	568	430	561	
6	0	0	0	0	620	568	429	561	
7	0	0	0	0	622	568	429	561	
8	0	0	0	0	606	568	428	557	
9	0	0	0	0	580	568	428	561	
10	0	0	0	0	548	568	429	561	
11	0	0	0	0	508	568	429	562	
12	0	0	0	0	475	568	429	565	
13	0	0	0	0	455	568	430	561	
14	0	0	0	0	437	568	428	561	
15	0	0	0	0	427	568	429	561	
0	0	0	0	0	424	568	429	557	
1	0	0	0	0	428	568	428	561	
2	0	0	0	0	441	568	428	561	
3	0	0	0	0	460	568	429	561	
4	0	0	0	0	484	568	429	565	
5	0	0	0	0	511	568	430	561	
6	0	0	0	0	535	568	428	561	
7	0	0	0	0	559	568	428	561	
8	0	0	0	0	570	568	428	558	
9	0	0	0	0	580	569	428	561	
10	0	0	0	0	599	568	429	561	
11	0	0	0	0	609	567	428	561	
12	0	0	0	0	604	567	430	565	
13	0	0	0	0	577	568	430	561	
14	0	0	0	0	540	568	428	561	
15	0	0	0	0	505	568	429	562	
0	0	0	0	0	466	568	428	558	
1	0	0	0	0	443	568	428	562	
2	0	0	0	0	440	568	429	562	
3	0	0	0	0	434	568	428	562	
4	0	0	0	0	419	568	428	566	
5	0	0	0	0	415	568	429	561	
6	0	0	0	0	431	568	428	561	
7	0	0	0	0	458	568	429	561	
8	0	0	0	0	486	568	428	557	
9	0	0	0	0	514	568	427	561	
10	0	0	0	0	534	568	428	561	
11	0	0	0	0	558	568	428	561	
12	0	0	0	0	576	568	428	565	
13	0	0	0	0	585	568	429	562	
14	0	0	0	0	605	568	429	561	
15	0	0	0	0	610	568	427	561	
0	0	0	0	0	599	568	428	558	
1	0	0	0	0	575	567	427	561	
2	0	0	0	0	543	568	428	561	
3	0	0	0	0	505	568	428	561	
4	0	0	0	0	468	568	429	565	
5	0	0	0	0	446	568	429	561	
6	0	0	0	0	435	568	428	561	
7	0	0	0	0	422	568	428	561	
8	0	0	0	0	413	568	428	558	
9	0	0	0	0	411	568	428	561	
10	0	0	0	0	434	567	428	561	
11	0	0	0	0	461	568	428	562	
12	0	0	0	0	494	568	428	565	
13	0	0	0	0	518	567	429	561	
14	0	0	0	0	536	568	428	562	
15	0	0	0	0	557	568	428	561	
0	0	0	0	0	571	567	428	558	
1	0	0	0	0	583	568	428	562	
2	0	0	0	0	606	568	428	561	
3	0	0	0	0	616	567	428	562	
4	0	0	0	0	600	568	428	566	
5	0	0	0	0	573	567	429	562	
6	0	0	0	0	540	568	428	561	
7	0	0	0	0	503	568	428	561	
8	0	0	0	0	480	568	428	558	
9	0	0	0	0	458	568	427	562	
10	0	0	0	0	432	567	428	562	
11	0	0	0	0	419	567	428	561	
12	0	0	0	0	411	568	428	566	
13	0	0	0	0	421	567	429	561	
14	0	0	0	0	435	568	428	561	
15	0	0	0	0	462	568	427	561	
0	0	0	0	0	488	568	428	557	
1	0	0	0	0	513	568	428	562	
2	0	0	0	0	536	568	428	561	
3	0	0	0	0	552	568	428	562	
4	0	0	0	0	575	568	428	565	
5	0	0	0	0	589	568	429	561	
6	0	0	0	0	606	568	428	561	
7	0	0	0	0	608	568	428	561	
8	0	0	0	0	598	568	428	558	
9	0	0	0	0	577	568	427	561	
10	0	0	0	0	545	568	428	562	
11	0	0	0	0	508	568	428	561	
12	0	0	0	0	475	568	428	564	
13	0	0	0	0	452	568	429	561	
14	0	0	0	0	436	568	428	561	
15	0	0	0	0	429	568	429	561	
0	0	0	0	0	416	568	428	557	
1	0	0	0	0	407	568	428	560	
2	0	0	0	0	428	568	428	561	
3	0	0	0	0	460	568	428	561	
4	0	0	0	0	486	568	429	564	
5	0	0	0	0	513	568	430	561	
6	0	0	0	0	536	568	428	560	
7	0	0	0	0	556	567	429	561	
8	0	0	0	0	575	567	429	557	
9	0	0	0	0	588	568	428	561	
10	0	0	0	0	605	567	428	561	
11	0	0	0	0	611	568	428	562	
12	0	0	0	0	603	568	429	565	
13	0	0	0	0	574	567	430	561	
14	0	0	0	0	547	568	428	561	
15	0	0	0	0	512	567	428	561	
0	0	0	0	0	474	568	428	557	
1	0	0	0	0	451	568	428	561	
2	0	0	0	0	433	568	429	561	
3	0	0	0	0	425	568	429	561	
4	0	0	0	0	416	568	429	564	
5	0	0	0	0	415	568	430	561	
6	0	0	0	0	429	568	429	561	
7	0	0	0	0	458	568	429	560	
8	0	0	0	0	474	568	429	558	
9	0	0	0	0	500	567	428	561	
10	0	0	0	0	537	568	428	561	
11	0	0	0	0	569	568	428	561	
12	0	0	0	0	577	568	429	564	
13	0	0	0	0	584	568	430	561	
14	0	0	0	0	613	568	428	560	
15	0	0	0	0	624	567	429	560	
0	0	0	0	0	603	568	429	557	
1	0	0	0	0	575	568	428	561	
2	0	0	0	0	544	568	430	560	
3	0	0	0	0	502	568	428	561	
4	0	0	0	0	473	568	428	564	
5	0	0	0	0	451	568	429	561	
6	0	0	0	0	432	568	429	560	
7	0	0	0	0	417	568	429	560	
8	0	0	0	0	410	568	428	558	
9	0	0	0	0	408	568	427	561	
10	0	0	0	0	428	568	428	560	
11	0	0	0	0	458	568	428	561	
12	0	0	0	0	487	568	429	565	
13	0	0	0	0	510	568	429	562	
14	0	0	0	0	530	568	428	561	
15	0	0	0	0	563	568	428	561	
0	0	0	0	0	584	568	429	556	
1	0	0	0	0	597	568	428	561	
2	0	0	0	0	619	568	429	561	
3	0	0	0	0	633	567	429	561	
4	0	0	0	0	611	568	429	565	
5	0	0	0	0	581	567	430	560	
6	0	0	0	0	543	568	428	561	
7	0	0	0	0	499	568	428	561	
8	0	0	0	0	471	568	427	557	
9	0	0	0	0	449	568	428	561	
10	0	0	0	0	424	568	428	561	
11	0	0	0	0	404	568	428	561	
12	0	0	0	0	396	568	429	565	
13	0	0	0	0	405	568	429	561	
14	0	0	0	0	423	568	428	561	
15	0	0	0	0	455	568	428	561	
0	0	0	0	0	487	568	428	557	
1	0	0	0	0	514	567	427	561	
2	0	0	0	0	537	568	428	561	
3	0	0	0	0	563	568	428	561	
4	0	0	0	0	585	568	428	565	
5	0	0	0	0	599	568	430	561	
6	0	0	0	0	624	568	429	561	
7	0	0	0	0	636	568	429	561	
8	0	0	0	0	620	568	428	557	
9	0	0	0	0	588	568	428	561	
10	0	0	0	0	545	568	429	561	
11	0	0	0	0	510	568	428	561	
12	0	0	0	0	468	568	429	565	
13	0	0	0	0	432	567	430	561	
14	0	0	0	0	408	568	428	561	
15	0	0	0	0	394	568	428	561	
0	0	0	0	0	380	568	428	557	
1	0	0	0	0	387	568	428	561	
2	0	0	0	0	417	568	428	561	
3	0	0	0	0	449	568	428	561	
4	0	0	0	0	488	568	428	565	
5	0	0	0	0	520	569	429	561	
6	0	0	0	0	548	568	428	561	
7	0	0	0	0	575	568	428	561	
8	0	0	0	0	604	568	428	557	
9	0	0	0	0	621	568	428	561	
10	0	0	0	0	646	568	429	561	
11	0	0	0	0	645	568	429	561	
12	0	0	0	0	620	567	429	565	
13	0	0	0	0	589	567	429	561	
14	0	0	0	0	547	568	429	561	
15	0	0	0	0	497	567	428	561	
0	0	0	0	0	450	568	429	557	
1	0	0	0	0	412	568	428	561	
2	0	0	0	0	392	568	429	561	
3	0	0	0	0	390	568	429	561	
4	0	0	0	0	382	568	429	566	
5	0	0	0	0	381	568	430	561	
6	0	0	0	0	411	568	428	561	
7	0	0	0	0	454	568	428	561	
8	0	0	0	0	491	568	428	556	
9	0	0	0	0	527	568	427	560	
10	0	0	0	0	553	568	428	561	
11	0	0	0	0	582	568	428	561	
12	0	0	0	0	610	568	428	565	
13	0	0	0	0	627	568	430	561	
14	0	0	0	0	646	568	429	561	
15	0	0	0	0	644	568	429	561	
0	0	0	0	0	623	568	429	557	
1	0	0	0	0	598	568	428	561	
2	0	0	0	0	548	568	429	561	
3	0	0	0	0	487	568	428	561	
4	0	0	0	0	442	568	428	564	
5	0	0	0	0	409	568	430	561	
6	0	0	0	0	385	568	429	561	
7	0	0	0	0	384	568	429	561	
8	0	0	0	0	379	568	429	557	
9	0	0	0	0	385	568	428	561	
10	0	0	0	0	413	568	428	561	
11	0	0	0	0	462	568	429	561	
12	0	0	0	0	495	568	429	565	
13	0	0	0	0	525	568	430	561	
14	0	0	0	0	554	568	429	561	
15	0	0	0	0	587	568	429	561	
0	0	0	0	0	612	568	429	558	
1	0	0	0	0	628	568	428	561	
2	0	0	0	0	652	568	429	561	
3	0	0	0	0	654	568	429	561	
4	0	0	0	0	620	568	429	565	
5	0	0	0	0	587	567	430	561	
6	0	0	0	0	544	568	429	561	
7	0	0	0	0	489	568	428	561	
8	0	0	0	0	443	568	429	557	
9	0	0	0	0	408	567	428	561	
10	0	0	0	0	382	567	428	561	
11	0	0	0	0	370	568	429	561	
12	0	0	0	0	379	568	429	565	
13	0	0	0	0	399	568	429	561	
14	0	0	0	0	426	568	429	561	
15	0	0	0	0	454	568	429	561	
0	0	0	0	0	486	568	428	557	
1	0	0	0	0	518	568	428	561	
2	0	0	0	0	549	568	429	561	
3	0	0	0	0	584	567	429	562	
4	0	0	0	0	613	568	429	565	
5	0	0	0	0	632	568	429	561	
6	0	0	0	0	648	568	428	561	
7	0	0	0	0	649	568	428	561	
8	0	0	0	0	624	568	428	557	
9	0	0	0	0	592	568	427	561	
10	0	0	0	0	545	568	428	561	
11	0	0	0	0	494	568	429	562	
12	0	0	0	0	440	568	429	565	
13	0	0	0	0	401	568	430	561	
14	0	0	0	0	393	568	429	561	
15	0	0	0	0	388	569	429	561	
0	0	0	0	0	382	568	429	557	
1	0	0	0	0	392	568	428	561	
2	0	0	0	0	418	568	429	561	
3	0	0	0	0	451	567	428	561	
4	0	0	0	0	492	568	429	565	
5	0	0	0	0	529	568	430	561	
6	0	0	0	0	555	568	430	561	
7	0	0	0	0	582	568	429	561	
8	0	0	0	0	604	568	428	558	
9	0	0	0	0	626	568	428	561	
10	0	0	0	0	650	568	429	561	
11	0	0	0	0	650	567	429	561	
12	0	0	0	0	618	568	429	565	
13	0	0	0	0	578	568	430	562	
14	0	0	0	0	533	568	429	562	
15	0	0	0	0	496	568	429	562	
0	0	0	0	0	455	568	429	558	
1	0	0	0	0	417	567	428	562	
2	0	0	0	0	384	568	430	562	
3	0	0	0	0	382	567	429	561	
4	0	0	0	0	391	567	430	566	
5	0	0	0	0	398	567	430	561	
6	0	0	0	0	424	568	429	561	
7	0	0	0	0	452	567	429	561	
8	0	0	0	0	486	568	429	558	
9	0	0	0	0	518	568	428	561	
10	0	0	0	0	551	568	429	561	
11	0	0	0	0	580	568	429	561	
12	0	0	0	0	604	568	429	565	
13	0	0	0	0	622	568	430	561	
14	0	0	0	0	640	567	428	562	
15	0	0	0	0	647	568	429	561	
0	0	0	0	0	623	568	429	558	
1	0	0	0	0	592	568	428	561	
2	0	0	0	0	548	567	429	561	
3	0	0	0	0	496	567	428	561	
4	0	0	0	0	450	567	430	565	
5	0	0	0	0	414	567	430	561	
6	0	0	0	0	387	568	429	561	
7	0	0	0	0	381	568	429	561	
8	0	0	0	0	380	568	429	557	
9	0	0	0	0	398	568	428	561	
10	0	0	0	0	425	568	428	561	
11	0	0	0	0	457	568	428	561	
12	0	0	0	0	480	568	429	565	
13	0	0	0	0	516	568	429	561	
14	0	0	0	0	551	568	428	561	
15	0	0	0	0	583	567	428	561	
0	0	0	0	0	599	567	428	558	
1	0	0	0	0	621	567	427	562	
2	0	0	0	0	656	568	428	562	
3	0	0	0	0	662	567	429	561	
4	0	0	0	0	625	567	429	566	
5	0	0	0	0	582	568	430	561	
6	0	0	0	0	539	568	429	562	
7	0	0	0	0	495	568	429	562	
8	0	0	0	0	454	568	428	558	
9	0	0	0	0	415	568	428	562	
10	0	0	0	0	388	568	429	562	
11	0	0	0	0	384	567	429	562	
12	0	0	0	0	379	567	429	565	
13	0	0	0	0	388	568	430	561	
14	0	0	0	0	419	568	429	562	
15	0	0	0	0	452	568	428	561	
0	0	0	0	0	489	568	427	557	
1	0	0	0	0	519	568	428	561	
2	0	0	0	0	559	568	428	561	
3	0	0	0	0	585	568	428	562	
4	0	0	0	0	609	567	429	566	
5	0	0	0	0	626	568	429	562	
6	0	0	0	0	647	568	429	561	
7	0	0	0	0	653	568	428	561	
8	0	0	0	0	619	568	428	558	
9	0	0	0	0	579	568	427	562	
10	0	0	0	0	542	568	428	561	
11	0	0	0	0	491	568	429	562	
12	0	0	0	0	444	567	428	566	
13	0	0	0	0	408	568	429	561	
14	0	0	0	0	388	568	428	561	
15	0	0	0	0	387	567	428	561	
0	0	0	0	0	382	568	428	558	
1	0	0	0	0	390	568	428	561	
2	0	0	0	0	420	567	428	561	
3	0	0	0	0	456	568	428	561	
4	0	0	0	0	487	568	428	566	
5	0	0	0	0	521	568	429	561	
6	0	0	0	0	556	568	428	562	
7	0	0	0	0	589	568	428	561	
8	0	0	0	0	611	568	428	557	
9	0	0	0	0	627	568	426	561	
10	0	0	0	0	654	568	428	561	
11	0	0	0	0	657	567	428	561	
12	0	0	0	0	627	568	429	566	
13	0	0	0	0	586	567	429	561	
14	0	0	0	0	542	568	428	561	
15	0	0	0	0	488	568	428	561	
0	0	0	0	0	434	568	428	558	
1	0	0	0	0	408	568	428	562	
2	0	0	0	0	382	567	428	561	
3	0	0	0	0	383	568	428	562	
4	0	0	0	0	389	568	429	566	
5	0	0	0	0	394	567	430	561	
6	0	0	0	0	421	568	428	562	
7	0	0	0	0	455	568	428	562	
8	0	0	0	0	493	568	428	558	
9	0	0	0	0	512	567	427	562	
10	0	0	0	0	534	568	428	561	
11	0	0	0	0	578	568	429	561	
12	0	0	0	0	626	568	428	565	
13	0	0	0	0	644	568	429	561	
14	0	0	0	0	654	568	429	561	
15	0	0	0	0	651	568	429	561	
0	0	0	0	0	614	568	428	558	
1	0	0	0	0	583	568	428	561	
2	0	0	0	0	547	568	429	561	
3	0	0	0	0	493	568	428	561	
4	0	0	0	0	443	568	428	565	
5	0	0	0	0	409	568	430	561	
6	0	0	0	0	387	568	428	561	
7	0	0	0	0	381	568	428	561	
8	0	0	0	0	376	568	428	558	
9	0	0	0	0	392	569	428	561	
10	0	0	0	0	423	568	428	562	
11	0	0	0	0	455	568	428	561	
12	0	0	0	0	489	568	429	565	
13	0	0	0	0	525	568	429	561	
14	0	0	0	0	553	568	428	561	
15	0	0	0	0	581	568	428	561	
0	0	0	0	0	605	568	428	557	
1	0	0	0	0	624	568	427	562	
2	0	0	0	0	645	568	429	561	
3	0	0	0	0	654	568	428	561	
4	0	0	0	0	626	568	430	566	
5	0	0	0	0	589	568	430	562	
6	0	0	0	0	542	568	429	561	
7	0	0	0	0	492	568	428	561	
8	0	0	0	0	444	568	428	558	
9	0	0	0	0	401	568	428	562	
10	0	0	0	0	383	568	428	561	
11	0	0	0	0	388	568	429	561	
12	0	0	0	0	387	568	429	565	
13	0	0	0	0	391	568	430	562	
14	0	0	0	0	420	568	429	561	
15	0	0	0	0	454	568	429	562	
0	0	0	0	0	487	567	429	558	
1	0	0	0	0	527	568	428	561	
2	0	0	0	0	556	568	428	561	
3	0	0	0	0	589	568	429	561	
4	0	0	0	0	613	567	429	565	
5	0	0	0	0	630	567	430	561	
6	0	0	0	0	647	568	429	561	
7	0	0	0	0	653	567	428	562	
8	0	0	0	0	626	567	428	557	
9	0	0	0	0	588	567	428	562	
10	0	0	0	0	541	568	428	561	
11	0	0	0	0	489	568	428	561	
12	0	0	0	0	440	568	429	565	
13	0	0	0	0	404	568	429	561	
14	0	0	0	0	379	568	429	561	
15	0	0	0	0	382	568	428	561	
0	0	0	0	0	377	567	428	557	
1	0	0	0	0	387	568	427	561	
2	0	0	0	0	416	568	428	561	
3	0	0	0	0	460	568	429	561	
4	0	0	0	0	489	568	429	565	
5	0	0	0	0	524	567	430	562	
6	0	0	0	0	554	568	428	561	
7	0	0	0	0	588	568	429	560	
8	0	0	0	0	616	568	428	557	
9	0	0	0	0	632	568	428	561	
10	0	0	0	0	651	567	429	561	
11	0	0	0	0	652	568	428	561	
12	0	0	0	0	622	568	429	564	
13	0	0	0	0	587	568	429	561	
14	0	0	0	0	542	568	429	560	
15	0	0	0	0	486	567	428	561	
0	0	0	0	0	442	568	428	557	
1	0	0	0	0	404	568	428	561	
2	0	0	0	0	382	568	429	560	
3	0	0	0	0	379	568	429	560	
4	0	0	0	0	391	568	428	564	
5	0	0	0	0	396	568	430	561	
6	0	0	0	0	419	568	428	561	
7	0	0	0	0	448	568	428	561	
8	0	0	0	0	493	568	429	558	
9	0	0	0	0	530	568	428	561	
10	0	0	0	0	557	568	429	561	
11	0	0	0	0	587	568	428	561	
12	0	0	0	0	614	568	429	564	
13	0	0	0	0	633	568	429	560	
14	0	0	0	0	652	568	428	561	
15	0	0	0	0	652	568	429	560	
0	0	0	0	0	623	568	428	557	
1	0	0	0	0	587	568	428	561	
2	0	0	0	0	538	568	429	561	
3	0	0	0	0	487	568	428	561	
4	0	0	0	0	439	568	428	565	
5	0	0	0	0	405	568	429	561	
6	0	0	0	0	381	568	428	560	
7	0	0	0	0	384	568	428	561	
8	0	0	0	0	375	568	429	557	
9	0	0	0	0	382	568	427	561	
10	0	0	0	0	415	568	428	561	
11	0	0	0	0	460	568	429	561	
12	0	0	0	0	494	568	429	565	
13	0	0	0	0	522	568	430	561	
14	0	0	0	0	551	568	429	561	
15	0	0	0	0	584	568	429	561	
0	0	0	0	0	613	568	429	557	
1	0	0	0	0	634	568	428	562	
2	0	0	0	0	649	568	428	561	
3	0	0	0	0	653	568	428	561	
4	0	0	0	0	630	568	429	565	
5	0	0	0	0	591	568	429	560	
6	0	0	0	0	536	568	429	561	
7	0	0	0	0	479	568	428	561	
8	0	0	0	0	439	568	428	556	
9	0	0	0	0	408	568	428	561	
10	0	0	0	0	384	568	428	561	
11	0	0	0	0	382	568	429	561	
12	0	0	0	0	381	568	428	565	
13	0	0	0	0	387	568	430	561	
14	0	0	0	0	416	568	428	561	
15	0	0	0	0	457	568	429	561	
0	0	0	0	0	497	567	429	556	
1	0	0	0	0	529	568	428	561	
2	0	0	0	0	561	568	428	561	
3	0	0	0	0	588	568	429	561	
4	0	0	0	0	606	568	428	565	
5	0	0	0	0	626	568	430	561	
6	0	0	0	0	655	568	429	561	
7	0	0	0	0	652	568	429	561	
8	0	0	0	0	623	568	429	557	
9	0	0	0	0	593	568	427	561	
10	0	0	0	0	540	568	428	561	
11	0	0	0	0	483	568	429	561	
12	0	0	0	0	438	568	428	565	
13	0	0	0	0	412	568	430	561	
14	0	0	0	0	387	568	429	560	
15	0	0	0	0	384	568	429	560	
0	0	0	0	0	383	568	428	557	
1	0	0	0	0	388	568	428	561	
2	0	0	0	0	418	568	428	561	
3	0	0	0	0	453	568	429	561	
4	0	0	0	0	487	567	429	565	
5	0	0	0	0	521	567	430	561	
6	0	0	0	0	553	568	428	561	
7	0	0	0	0	591	568	428	561	
8	0	0	0	0	617	568	428	557	
9	0	0	0	0	630	568	428	562	
10	0	0	0	0	649	568	428	561	
11	0	0	0	0	652	568	429	561	
12	0	0	0	0	621	568	429	565	
13	0	0	0	0	588	567	430	561	
14	0	0	0	0	538	568	429	562	
15	0	0	0	0	488	568	428	561	
0	0	0	0	0	441	568	429	557	
1	0	0	0	0	399	568	428	561	
2	0	0	0	0	383	568	429	561	
3	0	0	0	0	387	568	428	561	
4	0	0	0	0	382	568	428	565	
5	0	0	0	0	387	568	430	560	
6	0	0	0	0	420	568	428	561	
7	0	0	0	0	461	567	428	560	
8	0	0	0	0	498	568	428	557	
9	0	0	0	0	532	568	428	560	
10	0	0	0	0	558	568	428	560	
11	0	0	0	0	586	568	428	561	
12	0	0	0	0	610	567	428	565	
13	0	0	0	0	629	567	429	561	
14	0	0	0	0	647	568	428	561	
15	0	0	0	0	652	567	429	561	
0	0	0	0	0	619	568	429	558	
1	0	0	0	0	583	568	428	561	
2	0	0	0	0	541	568	428	561	
3	0	0	0	0	487	568	428	561	
4	0	0	0	0	446	567	428	565	
5	0	0	0	0	406	568	429	561	
6	0	0	0	0	378	568	429	561	
7	0	0	0	0	376	568	428	561	
8	0	0	0	0	386	568	428	558	
9	0	0	0	0	392	567	428	561	
10	0	0	0	0	429	568	428	561	
11	0	0	0	0	461	568	428	561	
12	0	0	0	0	492	568	428	566	
13	0	0	0	0	523	568	430	561	
14	0	0	0	0	550	568	429	561	
15	0	0	0	0	579	568	429	562	
0	0	0	0	0	608	568	428	558	
1	0	0	0	0	628	568	427	561	
2	0	0	0	0	650	568	428	561	
3	0	0	0	0	657	568	428	561	
4	0	0	0	0	627	568	429	565	
5	0	0	0	0	588	568	430	561	
6	0	0	0	0	538	568	428	561	
7	0	0	0	0	491	568	428	561	
8	0	0	0	0	445	568	428	557	
9	0	0	0	0	410	568	428	562	
10	0	0	0	0	385	568	428	561	
11	0	0	0	0	380	568	428	561	
12	0	0	0	0	378	568	428	566	
13	0	0	0	0	390	568	429	561	
14	0	0	0	0	418	568	428	561	
15	0	0	0	0	452	568	428	561	
0	0	0	0	0	485	568	429	557	
1	0	0	0	0	523	568	427	561	
2	0	0	0	0	556	568	428	561	
3	0	0	0	0	583	568	428	561	
4	0	0	0	0	608	568	428	565	
5	0	0	0	0	629	568	429	561	
6	0	0	0	0	652	568	428	561	
7	0	0	0	0	652	568	428	561	
8	0	0	0	0	620	568	428	558	
9	0	0	0	0	588	568	427	561	
10	0	0	0	0	540	568	428	561	
11	0	0	0	0	491	568	428	561	
12	0	0	0	0	442	567	428	565	
13	0	0	0	0	411	568	430	562	
14	0	0	0	0	387	568	428	561	
15	0	0	0	0	384	568	429	561	
0	0	0	0	0	386	568	428	558	
1	0	0	0	0	389	568	428	562	
2	0	0	0	0	417	568	428	561	
3	0	0	0	0	457	567	428	562	
4	0	0	0	0	494	568	428	565	
5	0	0	0	0	525	568	429	561	
6	0	0	0	0	554	568	428	561	
7	0	0	0	0	585	568	428	561	
8	0	0	0	0	611	568	428	557	
9	0	0	0	0	630	568	427	562	
10	0	0	0	0	652	568	428	561	
11	0	0	0	0	652	568	428	561	
12	0	0	0	0	622	568	428	564	
13	0	0	0	0	583	568	429	561	
14	0	0	0	0	540	568	428	561	
15	0	0	0	0	489	567	428	561	
0	0	0	0	0	444	568	428	557	
1	0	0	0	0	406	568	427	561	
2	0	0	0	0	383	567	428	560	
3	0	0	0	0	380	568	428	561	
4	0	0	0	0	373	567	428	565	
5	0	0	0	0	379	568	429	561	
6	0	0	0	0	422	567	429	561	
7	0	0	0	0	463	567	429	561	
8	0	0	0	0	497	567	429	557	
9	0	0	0	0	531	567	428	561	
10	0	0	0	0	563	568	428	561	
11	0	0	0	0	590	568	428	561	
12	0	0	0	0	615	567	429	565	
13	0	0	0	0	632	568	430	561	
14	0	0	0	0	652	567	428	561	
15	0	0	0	0	651	567	429	561	
0	0	0	0	0	622	567	428	557	
1	0	0	0	0	586	567	428	561	
2	0	0	0	0	535	568	428	561	
3	0	0	0	0	477	568	429	562	
4	0	0	0	0	425	567	429	565	
5	0	0	0	0	396	567	429	561	
6	0	0	0	0	389	568	428	561	
7	0	0	0	0	393	568	428	561	
8	0	0	0	0	387	568	428	557	
9	0	0	0	0	399	567	428	561	
10	0	0	0	0	425	568	428	561	
11	0	0	0	0	455	568	428	561	
12	0	0	0	0	489	567	428	565	
13	0	0	0	0	524	567	429	561	
14	0	0	0	0	552	567	428	561	
15	0	0	0	0	584	567	428	561	
0	0	0	0	0	612	567	428	558	
1	0	0	0	0	629	567	428	561	
2	0	0	0	0	654	567	428	561	
3	0	0	0	0	651	567	428	561	
4	0	0	0	0	618	568	428	565	
5	0	0	0	0	587	567	429	561	
6	0	0	0	0	544	568	428	561	
7	0	0	0	0	488	567	428	561	
8	0	0	0	0	440	568	428	557	
9	0	0	0	0	406	567	427	561	
10	0	0	0	0	380	567	428	561	
11	0	0	0	0	376	567	428	561	
12	0	0	0	0	376	567	429	565	
13	0	0	0	0	385	567	429	561	
14	0	0	0	0	425	568	428	561	
15	0	0	0	0	460	567	428	561	
0	0	0	0	0	492	567	428	557	
1	0	0	0	0	527	567	427	561	
2	0	0	0	0	565	567	428	561	
3	0	0	0	0	590	568	428	561	
4	0	0	0	0	609	567	428	565	
5	0	0	0	0	627	568	430	561	
6	0	0	0	0	663	568	428	561	
7	0	0	0	0	662	568	428	561	
8	0	0	0	0	624	568	429	557	
9	0	0	0	0	582	568	427	561	
10	0	0	0	0	532	568	429	561	
11	0	0	0	0	481	568	429	561	
12	0	0	0	0	440	568	428	564	
13	0	0	0	0	407	568	430	561	
14	0	0	0	0	382	568	428	560	
15	0	0	0	0	379	567	428	560	
0	0	0	0	0	378	568	428	556	
1	0	0	0	0	389	568	427	560	
2	0	0	0	0	423	568	428	560	
3	0	0	0	0	457	568	428	560	
4	0	0	0	0	495	568	428	563	
5	0	0	0	0	528	568	429	559	
6	0	0	0	0	555	568	428	560	
7	0	0	0	0	583	568	428	560	
8	0	0	0	0	620	567	428	556	
9	0	0	0	0	636	568	427	560	
10	0	0	0	0	653	568	428	560	
11	0	0	0	0	651	567	428	561	
12	0	0	0	0	621	568	429	564	
13	0	0	0	0	583	568	429	560	
14	0	0	0	0	532	569	430	559	
15	0	0	0	0	479	569	428	560	
0	0	0	0	0	433	569	428	556	
1	0	0	0	0	401	569	428	560	
2	0	0	0	0	383	568	429	560	
3	0	0	0	0	383	568	429	560	
4	0	0	0	0	377	568	429	564	
5	0	0	0	0	391	568	429	560	
6	0	0	0	0	423	568	429	560	
7	0	0	0	0	459	568	429	559	
8	0	0	0	0	499	568	428	556	
9	0	0	0	0	531	568	428	561	
10	0	0	0	0	566	567	428	561	
11	0	0	0	0	590	567	428	560	
12	0	0	0	0	614	568	428	564	
13	0	0	0	0	631	568	428	560	
14	0	0	0	0	650	568	428	560	
15	0	0	0	0	653	568	429	560	
0	0	0	0	0	622	568	428	556	
1	0	0	0	0	578	568	427	560	
2	0	0	0	0	531	568	428	560	
3	0	0	0	0	483	568	428	560	
4	0	0	0	0	436	567	428	564	
5	0	0	0	0	399	568	430	560	
6	0	0	0	0	383	568	429	561	
7	0	0	0	0	387	568	428	561	
8	0	0	0	0	386	568	428	556	
9	0	0	0	0	395	567	427	560	
10	0	0	0	0	424	567	429	560	
11	0	0	0	0	457	568	428	560	
12	0	0	0	0	493	568	428	564	
13	0	0	0	0	529	568	429	560	
14	0	0	0	0	558	568	428	560	
15	0	0	0	0	583	568	428	560	
0	0	0	0	0	612	568	428	556	
1	0	0	0	0	639	568	427	560	
2	0	0	0	0	656	567	429	560	
3	0	0	0	0	651	568	428	560	
4	0	0	0	0	620	567	428	564	
5	0	0	0	0	585	567	429	560	
6	0	0	0	0	536	568	429	560	
7	0	0	0	0	481	567	429	561	
8	0	0	0	0	438	567	428	556	
9	0	0	0	0	404	567	428	560	
10	0	0	0	0	383	567	428	560	
11	0	0	0	0	375	567	428	560	
12	0	0	0	0	371	568	428	564	
13	0	0	0	0	392	568	429	560	
14	0	0	0	0	428	568	428	560	
15	0	0	0	0	456	567	428	561	
0	0	0	0	0	490	568	427	556	
1	0	0	0	0	529	568	427	561	
2	0	0	0	0	558	568	428	560	
3	0	0	0	0	590	568	429	560	
4	0	0	0	0	616	568	428	564	
5	0	0	0	0	636	568	429	560	
6	0	0	0	0	659	568	428	561	
7	0	0	0	0	656	568	429	560	
8	0	0	0	0	624	568	428	557	
9	0	0	0	0	580	568	428	561	
10	0	0	0	0	532	568	428	561	
11	0	0	0	0	482	568	428	562	
12	0	0	0	0	441	568	428	566	
13	0	0	0	0	408	568	430	561	
14	0	0	0	0	383	568	428	561	
15	0	0	0	0	384	568	429	561	
0	0	0	0	0	380	568	429	558	
1	0	0	0	0	389	568	428	561	
2	0	0	0	0	419	567	429	560	
3	0	0	0	0	455	567	428	560	
4	0	0	0	0	493	567	428	563	
5	0	0	0	0	526	568	429	560	
6	0	0	0	0	556	567	428	559	
7	0	0	0	0	587	567	428	560	
8	0	0	0	0	609	567	428	556	
9	0	0	0	0	635	567	427	560	
10	0	0	0	0	663	567	428	560	
11	0	0	0	0	655	567	427	560	
12	0	0	0	0	619	568	428	564	
13	0	0	0	0	583	568	429	560	
14	0	0	0	0	536	568	429	560	
15	0	0	0	0	480	568	429	560	
0	0	0	0	0	431	569	428	556	
1	0	0	0	0	411	569	427	560	
2	0	0	0	0	386	568	428	560	
3	0	0	0	0	380	568	429	560	
4	0	0	0	0	384	568	429	563	
5	0	0	0	0	395	569	430	560	
6	0	0	0	0	419	568	429	561	
7	0	0	0	0	449	568	429	560	
8	0	0	0	0	488	568	429	557	
9	0	0	0	0	529	567	428	560	
10	0	0	0	0	565	567	429	560	
11	0	0	0	0	595	568	429	560	
12	0	0	0	0	621	568	429	564	
13	0	0	0	0	632	568	430	560	
14	0	0	0	0	655	568	429	560	
15	0	0	0	0	649	568	429	560	
0	0	0	0	0	623	568	429	557	
1	0	0	0	0	591	568	428	561	
2	0	0	0	0	535	568	430	560	
3	0	0	0	0	475	568	429	561	
4	0	0	0	0	432	568	429	565	
5	0	0	0	0	407	568	430	561	
6	0	0	0	0	380	568	429	561	
7	0	0	0	0	383	568	428	561	
8	0	0	0	0	380	568	429	557	
9	0	0	0	0	389	568	428	560	
10	0	0	0	0	420	568	429	560	
11	0	0	0	0	454	568	429	561	
12	0	0	0	0	494	568	429	564	
13	0	0	0	0	529	568	429	560	
14	0	0	0	0	564	568	429	561	
15	0	0	0	0	594	568	429	561	
0	0	0	0	0	617	567	429	557	
1	0	0	0	0	638	567	428	561	
2	0	0	0	0	652	567	429	562	
3	0	0	0	0	650	568	430	561	
4	0	0	0	0	622	568	430	565	
5	0	0	0	0	583	568	430	561	
6	0	0	0	0	531	568	429	561	
7	0	0	0	0	476	568	428	561	
8	0	0	0	0	435	568	428	558	
9	0	0	0	0	403	568	429	561	
10	0	0	0	0	381	568	429	561	
11	0	0	0	0	381	568	429	561	
12	0	0	0	0	374	568	429	564	
13	0	0	0	0	380	568	430	561	
14	0	0	0	0	423	568	429	561	
15	0	0	0	0	466	568	429	560	
0	0	0	0	0	497	568	429	557	
1	0	0	0	0	531	568	428	561	
2	0	0	0	0	558	568	428	561	
3	0	0	0	0	591	567	428	560	
4	0	0	0	0	615	568	429	565	
5	0	0	0	0	628	568	429	560	
6	0	0	0	0	655	568	428	561	
7	0	0	0	0	660	568	428	560	
8	0	0	0	0	625	568	428	556	
9	0	0	0	0	583	567	427	560	
10	0	0	0	0	534	568	429	560	
11	0	0	0	0	476	567	428	561	
12	0	0	0	0	438	567	428	564	
13	0	0	0	0	405	568	429	560	
14	0	0	0	0	381	567	428	560	
15	0	0	0	0	377	568	429	560	
0	0	0	0	0	376	567	428	556	
1	0	0	0	0	389	567	428	560	
2	0	0	0	0	420	568	428	560	
3	0	0	0	0	461	567	428	560	
4	0	0	0	0	496	568	428	564	
5	0	0	0	0	533	568	430	561	
6	0	0	0	0	562	567	428	560	
7	0	0	0	0	592	567	429	560	
8	0	0	0	0	614	567	428	556	
9	0	0	0	0	636	568	428	561	
10	0	0	0	0	659	567	429	561	
11	0	0	0	0	652	567	428	561	
12	0	0	0	0	614	567	429	564	
13	0	0	0	0	583	567	429	561	
14	0	0	0	0	537	567	428	561	
15	0	0	0	0	482	567	429	560	
0	0	0	0	0	435	567	428	557	
1	0	0	0	0	400	567	427	561	
2	0	0	0	0	378	567	428	561	
3	0	0	0	0	375	567	428	562	
4	0	0	0	0	378	567	428	566	
5	0	0	0	0	392	567	430	561	
6	0	0	0	0	423	567	428	561	
7	0	0	0	0	458	567	428	561	
8	0	0	0	0	496	567	428	557	
9	0	0	0	0	534	567	428	561	
10	0	0	0	0	560	567	428	561	
11	0	0	0	0	587	567	428	561	
12	0	0	0	0	620	567	428	565	
13	0	0	0	0	640	567	429	561	
14	0	0	0	0	657	567	428	561	
15	0	0	0	0	654	567	428	561	
0	0	0	0	0	619	567	428	557	
1	0	0	0	0	584	568	427	561	
2	0	0	0	0	535	568	428	561	
3	0	0	0	0	478	567	428	561	
4	0	0	0	0	433	567	428	564	
5	0	0	0	0	397	567	428	561	
6	0	0	0	0	377	567	428	561	
7	0	0	0	0	377	568	428	560	
8	0	0	0	0	377	568	428	557	
9	0	0	0	0	389	567	427	561	
10	0	0	0	0	425	567	428	560	
11	0	0	0	0	462	567	428	561	
12	0	0	0	0	498	567	428	564	
13	0	0	0	0	529	567	428	561	
14	0	0	0	0	559	567	428	561	
15	0	0	0	0	590	567	428	560	
0	0	0	0	0	620	566	427	557	
1	0	0	0	0	629	567	427	561	
2	0	0	0	0	658	566	428	561	
3	0	0	0	0	655	566	428	560	
4	0	0	0	0	620	567	428	565	
5	0	0	0	0	574	566	428	561	
6	0	0	0	0	525	567	428	561	
7	0	0	0	0	485	567	428	561	
8	0	0	0	0	446	567	427	557	
9	0	0	0	0	408	567	427	561	
10	0	0	0	0	376	567	428	562	
11	0	0	0	0	379	568	428	562	
12	0	0	0	0	382	567	428	565	
13	0	0	0	0	391	568	429	561	
14	0	0	0	0	420	567	428	561	
15	0	0	0	0	457	567	428	561	
0	0	0	0	0	497	567	428	556	
1	0	0	0	0	532	568	427	561	
2	0	0	0	0	562	567	428	561	
3	0	0	0	0	594	567	428	561	
4	0	0	0	0	617	568	428	565	
5	0	0	0	0	634	567	429	561	
6	0	0	0	0	653	568	428	561	
7	0	0	0	0	657	568	429	561	
8	0	0	0	0	624	567	428	557	
9	0	0	0	0	583	568	427	561	
10	0	0	0	0	530	568	429	561	
11	0	0	0	0	478	568	428	561	
12	0	0	0	0	432	568	428	565	
13	0	0	0	0	396	568	430	560	
14	0	0	0	0	374	568	429	560	
15	0	0	0	0	374	568	429	560	
0	0	0	0	0	374	568	428	556	
1	0	0	0	0	396	567	428	560	
2	0	0	0	0	429	567	429	560	
3	0	0	0	0	462	567	428	560	
4	0	0	0	0	497	567	430	564	
5	0	0	0	0	536	567	429	560	
6	0	0	0	0	557	566	428	560	
7	0	0	0	0	588	566	429	561	
8	0	0	0	0	622	566	428	557	
9	0	0	0	0	643	566	428	560	
10	0	0	0	0	658	567	428	560	
11	0	0	0	0	655	566	428	560	
12	0	0	0	0	620	567	428	564	
13	0	0	0	0	582	567	429	560	
14	0	0	0	0	530	567	428	560	
15	0	0	0	0	470	568	429	561	
0	0	0	0	0	428	567	428	556	
1	0	0	0	0	398	567	428	561	
2	0	0	0	0	379	567	429	561	
3	0	0	0	0	389	568	429	560	
4	0	0	0	0	381	567	430	564	
5	0	0	0	0	390	568	430	560	
6	0	0	0	0	425	568	430	561	
7	0	0	0	0	461	568	429	560	
8	0	0	0	0	496	568	428	557	
9	0	0	0	0	533	568	428	560	
10	0	0	0	0	562	567	428	560	
11	0	0	0	0	591	568	428	561	
12	0	0	0	0	620	568	429	564	
13	0	0	0	0	636	568	429	560	
14	0	0	0	0	655	568	429	560	
15	0	0	0	0	655	568	429	560	
0	0	0	0	0	622	568	429	557	
1	0	0	0	0	581	568	428	560	
2	0	0	0	0	531	567	429	560	
3	0	0	0	0	477	568	428	560	
4	0	0	0	0	428	568	429	563	
5	0	0	0	0	394	567	430	560	
6	0	0	0	0	376	567	429	560	
7	0	0	0	0	380	568	429	560	
8	0	0	0	0	378	567	429	556	
9	0	0	0	0	391	567	428	560	
10	0	0	0	0	424	568	429	560	
11	0	0	0	0	461	568	429	560	
12	0	0	0	0	492	568	429	564	
13	0	0	0	0	527	568	430	561	
14	0	0	0	0	563	568	429	561	
15	0	0	0	0	599	568	429	561	
0	0	0	0	0	622	568	429	557	
1	0	0	0	0	639	568	428	561	
2	0	0	0	0	657	567	429	561	
3	0	0	0	0	648	568	428	561	
4	0	0	0	0	622	567	429	565	
5	0	0	0	0	590	568	430	561	
6	0	0	0	0	537	568	429	561	
7	0	0	0	0	479	568	428	561	
8	0	0	0	0	435	568	429	557	
9	0	0	0	0	398	568	428	561	
10	0	0	0	0	374	567	428	562	
11	0	0	0	0	374	568	429	561	
12	0	0	0	0	375	568	429	565	
13	0	0	0	0	388	567	430	561	
14	0	0	0	0	425	568	428	561	
15	0	0	0	0	455	568	429	560	
0	0	0	0	0	496	568	428	556	
1	0	0	0	0	534	567	428	561	
2	0	0	0	0	563	568	429	560	
3	0	0	0	0	596	568	428	561	
4	0	0	0	0	619	568	430	564	
5	0	0	0	0	634	567	430	560	
6	0	0	0	0	656	568	428	561	
7	0	0	0	0	657	568	428	561	
8	0	0	0	0	624	568	428	557	
9	0	0	0	0	581	568	428	561	
10	0	0	0	0	528	568	428	561	
11	0	0	0	0	473	568	429	560	
12	0	0	0	0	435	567	428	564	
13	0	0	0	0	402	568	429	560	
14	0	0	0	0	376	568	429	561	
15	0	0	0	0	377	568	429	561	
0	0	0	0	0	379	567	428	557	
1	0	0	0	0	391	568	428	561	
2	0	0	0	0	421	568	428	561	
3	0	0	0	0	456	568	428	561	
4	0	0	0	0	493	568	429	564	
5	0	0	0	0	534	567	430	561	
6	0	0	0	0	562	567	429	561	
7	0	0	0	0	597	567	428	561	
8	0	0	0	0	622	567	428	557	
9	0	0	0	0	638	568	427	561	
10	0	0	0	0	656	567	428	560	
11	0	0	0	0	652	568	428	560	
12	0	0	0	0	620	568	428	564	
13	0	0	0	0	583	568	429	561	
14	0	0	0	0	531	568	428	561	
15	0	0	0	0	478	568	428	560	
0	0	0	0	0	432	568	428	557	
1	0	0	0	0	400	569	428	560	
2	0	0	0	0	378	568	428	560	
3	0	0	0	0	374	568	428	560	
4	0	0	0	0	375	569	428	564	
5	0	0	0	0	388	569	429	560	
6	0	0	0	0	423	569	428	560	
7	0	0	0	0	460	568	428	560	
8	0	0	0	0	502	568	428	556	
9	0	0	0	0	534	568	428	561	
10	0	0	0	0	564	568	428	560	
11	0	0	0	0	595	568	429	561	
12	0	0	0	0	615	568	428	564	
13	0	0	0	0	632	568	429	561	
14	0	0	0	0	651	568	428	560	
15	0	0	0	0	661	568	428	561	
0	0	0	0	0	632	568	428	557	
1	0	0	0	0	589	568	427	561	
2	0	0	0	0	530	568	429	560	
3	0	0	0	0	477	568	429	560	
4	0	0	0	0	430	568	429	564	
5	0	0	0	0	396	569	429	560	
6	0	0	0	0	372	568	428	560	
7	0	0	0	0	363	569	429	560	
8	0	0	0	0	373	569	428	556	
9	0	0	0	0	394	569	427	561	
10	0	0	0	0	441	569	428	560	
11	0	0	0	0	466	568	428	561	
12	0	0	0	0	499	569	428	564	
13	0	0	0	0	531	569	430	561	
14	0	0	0	0	563	569	428	561	
15	0	0	0	0	595	568	428	561	
0	0	0	0	0	616	568	428	558	
1	0	0	0	0	630	568	428	562	
2	0	0	0	0	658	568	429	562	
3	0	0	0	0	655	568	428	562	
4	0	0	0	0	623	568	429	566	
5	0	0	0	0	585	568	430	561	
6	0	0	0	0	531	568	428	561	
7	0	0	0	0	477	568	429	561	
8	0	0	0	0	435	567	428	557	
9	0	0	0	0	399	568	427	561	
10	0	0	0	0	376	568	428	562	
11	0	0	0	0	374	567	428	561	
12	0	0	0	0	375	568	429	565	
13	0	0	0	0	389	567	429	561	
14	0	0	0	0	428	567	428	562	
15	0	0	0	0	464	568	428	561	
0	0	0	0	0	494	567	429	558	
1	0	0	0	0	522	567	428	561	
2	0	0	0	0	552	567	428	561	
3	0	0	0	0	593	568	429	561	
4	0	0	0	0	621	568	429	566	
5	0	0	0	0	644	568	429	561	
6	0	0	0	0	659	568	429	561	
7	0	0	0	0	658	568	429	561	
8	0	0	0	0	629	568	429	557	
9	0	0	0	0	586	568	428	561	
10	0	0	0	0	527	568	429	561	
11	0	0	0	0	467	568	429	561	
12	0	0	0	0	425	568	429	566	
13	0	0	0	0	400	567	430	561	
14	0	0	0	0	375	567	429	561	
15	0	0	0	0	377	567	428	561	
0	0	0	0	0	383	567	428	558	
1	0	0	0	0	391	567	428	561	
2	0	0	0	0	415	567	429	561	
3	0	0	0	0	463	567	429	561	
4	0	0	0	0	506	567	429	564	
5	0	0	0	0	538	567	430	561	
6	0	0	0	0	562	567	430	561	
7	0	0	0	0	593	566	429	561	
8	0	0	0	0	619	567	428	557	
9	0	0	0	0	636	568	427	561	
10	0	0	0	0	659	567	428	561	
11	0	0	0	0	664	567	429	561	
12	0	0	0	0	632	567	428	565	
13	0	0	0	0	587	567	429	561	
14	0	0	0	0	532	567	429	561	
15	0	0	0	0	472	567	428	561	
0	0	0	0	0	422	567	428	558	
1	0	0	0	0	390	567	427	562	
2	0	0	0	0	366	567	429	562	
3	0	0	0	0	371	567	428	562	
4	0	0	0	0	375	567	429	565	
5	0	0	0	0	396	568	430	562	
6	0	0	0	0	423	568	429	562	
7	0	0	0	0	459	567	428	562	
8	0	0	0	0	494	568	429	558	
9	0	0	0	0	537	567	428	562	
10	0	0	0	0	565	567	429	561	
11	0	0	0	0	596	567	429	562	
12	0	0	0	0	624	567	429	566	
13	0	0	0	0	644	567	430	561	
14	0	0	0	0	662	567	429	562	
15	0	0	0	0	655	567	429	562	
0	0	0	0	0	622	567	428	558	
1	0	0	0	0	579	567	428	562	
2	0	0	0	0	533	566	428	562	
3	0	0	0	0	473	567	429	562	
4	0	0	0	0	426	567	429	565	
5	0	0	0	0	397	567	429	562	
6	0	0	0	0	382	567	428	561	
7	0	0	0	0	373	568	429	561	
8	0	0	0	0	370	567	428	558	
9	0	0	0	0	386	567	428	561	
10	0	0	0	0	421	567	428	562	
11	0	0	0	0	460	567	428	561	
12	0	0	0	0	502	567	429	566	
13	0	0	0	0	539	568	429	562	
14	0	0	0	0	563	568	429	562	
15	0	0	0	0	599	567	428	562	
0	0	0	0	0	618	567	428	558	
1	0	0	0	0	636	567	428	562	
2	0	0	0	0	661	567	428	562	
3	0	0	0	0	661	567	430	561	
4	0	0	0	0	620	568	429	565	
5	0	0	0	0	585	568	431	561	
6	0	0	0	0	532	568	430	562	
7	0	0	0	0	476	568	429	562	
8	0	0	0	0	423	567	429	558	
9	0	0	0	0	393	568	429	561	
10	0	0	0	0	379	568	430	561	
11	0	0	0	0	378	568	429	561	
12	0	0	0	0	381	568	429	564	
13	0	0	0	0	395	568	430	561	
14	0	0	0	0	418	568	429	561	
15	0	0	0	0	454	568	429	560	
0	0	0	0	0	495	568	429	557	
1	0	0	0	0	532	568	428	561	
2	0	0	0	0	558	568	428	560	
3	0	0	0	0	597	568	428	561	
4	0	0	0	0	623	568	428	565	
5	0	0	0	0	643	568	430	561	
6	0	0	0	0	661	568	429	560	
7	0	0	0	0	650	568	428	560	
8	0	0	0	0	611	567	428	556	
9	0	0	0	0	573	567	428	560	
10	0	0	0	0	536	567	428	560	
11	0	0	0	0	491	568	428	561	
12	0	0	0	0	440	568	429	564	
13	0	0	0	0	398	567	430	561	
14	0	0	0	0	375	568	429	560	
15	0	0	0	0	375	567	428	560	
0	0	0	0	0	376	567	428	557	
1	0	0	0	0	385	567	427	560	
2	0	0	0	0	422	567	428	560	
3	0	0	0	0	460	566	428	561	
4	0	0	0	0	494	566	428	565	
5	0	0	0	0	527	566	428	561	
6	0	0	0	0	556	566	429	561	
7	0	0	0	0	596	566	428	561	
8	0	0	0	0	628	566	428	557	
9	0	0	0	0	653	565	427	561	
10	0	0	0	0	662	565	428	561	
11	0	0	0	0	657	565	428	561	
12	0	0	0	0	623	565	429	565	
13	0	0	0	0	578	565	429	561	
14	0	0	0	0	531	566	428	561	
15	0	0	0	0	474	566	428	561	
0	0	0	0	0	429	567	429	557	
1	0	0	0	0	400	567	428	561	
2	0	0	0	0	377	567	428	562	
3	0	0	0	0	375	566	428	562	
4	0	0	0	0	379	566	429	566	
5	0	0	0	0	396	567	429	562	
6	0	0	0	0	427	567	428	562	
7	0	0	0	0	457	567	428	561	
8	0	0	0	0	484	567	428	558	
9	0	0	0	0	530	567	428	562	
10	0	0	0	0	564	568	429	561	
11	0	0	0	0	598	568	428	562	
12	0	0	0	0	620	568	429	566	
13	0	0	0	0	636	569	429	561	
14	0	0	0	0	659	568	428	562	
15	0	0	0	0	655	568	429	561	
0	0	0	0	0	624	568	428	558	
1	0	0	0	0	583	569	428	561	
2	0	0	0	0	531	569	428	562	
3	0	0	0	0	471	569	429	562	
4	0	0	0	0	425	569	428	565	
5	0	0	0	0	397	569	430	562	
6	0	0	0	0	371	569	429	561	
7	0	0	0	0	373	569	428	561	
8	0	0	0	0	378	569	428	557	
9	0	0	0	0	393	569	427	561	
10	0	0	0	0	424	568	428	561	
11	0	0	0	0	459	568	428	560	
12	0	0	0	0	496	568	428	564	
13	0	0	0	0	534	568	429	560	
14	0	0	0	0	564	568	428	560	
15	0	0	0	0	599	568	428	561	
0	0	0	0	0	628	568	428	557	
1	0	0	0	0	644	567	428	560	
2	0	0	0	0	664	567	428	561	
3	0	0	0	0	655	568	428	561	
4	0	0	0	0	620	568	428	564	
5	0	0	0	0	582	567	429	560	
6	0	0	0	0	527	568	428	561	
7	0	0	0	0	468	567	428	560	
8	0	0	0	0	425	567	428	556	
9	0	0	0	0	394	567	428	560	
10	0	0	0	0	375	567	428	560	
11	0	0	0	0	372	566	428	561	
12	0	0	0	0	377	567	428	564	
13	0	0	0	0	398	567	429	560	
14	0	0	0	0	429	567	428	560	
15	0	0	0	0	461	567	428	560	
0	0	0	0	0	493	567	428	557	
1	0	0	0	0	532	566	427	561	
2	0	0	0	0	563	567	428	561	
3	0	0	0	0	598	567	428	560	
4	0	0	0	0	622	567	428	563	
5	0	0	0	0	641	567	429	561	
6	0	0	0	0	661	568	428	560	
7	0	0	0	0	658	567	428	561	
8	0	0	0	0	620	567	428	556	
9	0	0	0	0	575	567	427	561	
10	0	0	0	0	525	567	428	561	
11	0	0	0	0	471	567	429	561	
12	0	0	0	0	428	567	429	564	
13	0	0	0	0	400	568	430	561	
14	0	0	0	0	375	568	429	561	
15	0	0	0	0	377	568	429	561	
0	0	0	0	0	380	568	428	557	
1	0	0	0	0	395	569	428	561	
2	0	0	0	0	423	568	428	561	
3	0	0	0	0	455	568	428	561	
4	0	0	0	0	493	568	429	564	
5	0	0	0	0	540	568	429	561	
6	0	0	0	0	568	568	428	561	
7	0	0	0	0	595	568	429	560	
8	0	0	0	0	619	568	428	557	
9	0	0	0	0	643	568	428	560	
10	0	0	0	0	659	568	428	561	
11	0	0	0	0	657	568	428	561	
12	0	0	0	0	620	568	428	564	
13	0	0	0	0	579	568	429	561	
14	0	0	0	0	528	568	429	561	
15	0	0	0	0	474	568	427	561	
0	0	0	0	0	432	568	428	557	
1	0	0	0	0	398	568	428	561	
2	0	0	0	0	379	568	428	561	
3	0	0	0	0	374	568	429	560	
4	0	0	0	0	374	568	429	564	
5	0	0	0	0	391	567	429	560	
6	0	0	0	0	425	568	429	561	
7	0	0	0	0	459	567	429	561	
8	0	0	0	0	492	568	429	556	
9	0	0	0	0	529	567	428	560	
10	0	0	0	0	563	568	429	561	
11	0	0	0	0	596	568	429	560	
12	0	0	0	0	618	568	428	564	
13	0	0	0	0	639	568	429	561	
14	0	0	0	0	660	568	429	560	
15	0	0	0	0	660	568	428	561	
0	0	0	0	0	626	568	429	557	
1	0	0	0	0	581	568	428	561	
2	0	0	0	0	529	568	428	561	
3	0	0	0	0	476	568	428	561	
4	0	0	0	0	435	568	429	564	
5	0	0	0	0	398	568	429	560	
6	0	0	0	0	376	568	429	560	
7	0	0	0	0	377	568	428	560	
8	0	0	0	0	377	568	428	556	
9	0	0	0	0	387	568	428	560	
10	0	0	0	0	426	568	428	561	
11	0	0	0	0	463	568	428	561	
12	0	0	0	0	493	568	429	564	
13	0	0	0	0	527	568	429	561	
14	0	0	0	0	563	568	428	561	
15	0	0	0	0	600	568	428	560	
0	0	0	0	0	622	568	429	557	
1	0	0	0	0	637	568	427	560	
2	0	0	0	0	659	568	429	561	
3	0	0	0	0	655	567	429	561	
4	0	0	0	0	620	568	429	564	
5	0	0	0	0	573	568	429	561	
6	0	0	0	0	520	568	428	560	
7	0	0	0	0	478	567	428	561	
8	0	0	0	0	439	568	427	557	
9	0	0	0	0	404	568	427	561	
10	0	0	0	0	380	568	428	560	
11	0	0	0	0	375	568	429	560	
12	0	0	0	0	376	568	429	564	
13	0	0	0	0	390	568	430	560	
14	0	0	0	0	422	569	428	560	
15	0	0	0	0	461	568	429	560	
0	0	0	0	0	499	568	428	556	
1	0	0	0	0	535	568	427	560	
2	0	0	0	0	560	568	429	560	
3	0	0	0	0	596	568	429	560	
4	0	0	0	0	616	568	430	564	
5	0	0	0	0	640	568	429	560	
6	0	0	0	0	660	568	428	560	
7	0	0	0	0	656	568	428	560	
8	0	0	0	0	624	568	427	556	
9	0	0	0	0	584	568	427	560	
10	0	0	0	0	526	568	428	560	
11	0	0	0	0	472	568	429	560	
12	0	0	0	0	432	568	429	564	
13	0	0	0	0	397	568	429	560	
14	0	0	0	0	379	568	428	560	
15	0	0	0	0	379	567	428	560	
0	0	0	0	0	372	568	428	556	
1	0	0	0	0	385	568	427	560	
2	0	0	0	0	421	568	428	560	
3	0	0	0	0	461	568	428	560	
4	0	0	0	0	501	568	428	563	
5	0	0	0	0	534	568	429	560	
6	0	0	0	0	568	568	428	560	
7	0	0	0	0	598	568	428	560	
8	0	0	0	0	625	568	428	556	
9	0	0	0	0	641	568	427	560	
10	0	0	0	0	661	567	428	560	
11	0	0	0	0	656	568	428	560	
12	0	0	0	0	618	568	428	564	
13	0	0	0	0	581	568	429	560	
14	0	0	0	0	527	568	427	560	
15	0	0	0	0	475	568	428	560	
0	0	0	0	0	425	568	428	556	
1	0	0	0	0	395	568	427	560	
2	0	0	0	0	375	568	428	560	
3	0	0	0	0	376	568	429	560	
4	0	0	0	0	378	567	429	564	
5	0	0	0	0	391	568	429	560	
6	0	0	0	0	424	568	428	560	
7	0	0	0	0	460	568	428	560	
8	0	0	0	0	497	567	428	556	
9	0	0	0	0	533	568	427	560	
10	0	0	0	0	561	568	428	560	
11	0	0	0	0	590	568	428	560	
12	0	0	0	0	619	568	429	563	
13	0	0	0	0	641	567	428	559	
14	0	0	0	0	656	568	428	560	
15	0	0	0	0	660	568	429	560	
0	0	0	0	0	628	568	428	556	
1	0	0	0	0	585	568	427	559	
2	0	0	0	0	531	568	428	560	
3	0	0	0	0	475	568	428	560	
4	0	0	0	0	430	568	428	564	
5	0	0	0	0	398	568	429	560	
6	0	0	0	0	376	568	428	560	
7	0	0	0	0	374	568	428	560	
8	0	0	0	0	375	568	428	556	
9	0	0	0	0	387	568	427	559	
10	0	0	0	0	423	568	428	560	
11	0	0	0	0	459	568	428	560	
12	0	0	0	0	497	568	429	563	
13	0	0	0	0	536	568	429	560	
14	0	0	0	0	563	568	428	560	
15	0	0	0	0	595	568	427	560	
0	0	0	0	0	624	568	428	556	
1	0	0	0	0	642	568	427	561	
2	0	0	0	0	658	567	429	560	
3	0	0	0	0	647	567	428	560	
4	0	0	0	0	621	567	428	564	
5	0	0	0	0	585	568	429	560	
6	0	0	0	0	534	567	428	560	
7	0	0	0	0	478	568	428	560	
8	0	0	0	0	432	568	428	556	
9	0	0	0	0	393	567	427	560	
10	0	0	0	0	369	567	428	560	
11	0	0	0	0	373	567	428	560	
12	0	0	0	0	385	568	428	564	
13	0	0	0	0	394	568	428	560	
14	0	0	0	0	425	568	428	560	
15	0	0	0	0	460	568	428	561	
0	0	0	0	0	496	568	428	557	
1	0	0	0	0	531	568	427	561	
2	0	0	0	0	566	568	428	560	
3	0	0	0	0	595	568	428	562	
4	0	0	0	0	617	568	428	564	
5	0	0	0	0	638	568	429	561	
6	0	0	0	0	654	568	428	561	
7	0	0	0	0	651	568	428	560	
8	0	0	0	0	622	568	428	557	
9	0	0	0	0	588	568	427	561	
10	0	0	0	0	540	568	428	560	
11	0	0	0	0	479	568	428	561	
12	0	0	0	0	429	568	428	564	
13	0	0	0	0	394	568	429	560	
14	0	0	0	0	372	568	428	560	
15	0	0	0	0	378	568	428	560	
0	0	0	0	0	376	568	428	556	
1	0	0	0	0	385	568	427	561	
2	0	0	0	0	420	568	428	561	
3	0	0	0	0	460	567	428	561	
4	0	0	0	0	499	568	428	565	
5	0	0	0	0	538	568	429	562	
6	0	0	0	0	567	568	428	561	
7	0	0	0	0	595	568	428	560	
8	0	0	0	0	623	568	428	556	
9	0	0	0	0	639	568	427	560	
10	0	0	0	0	655	568	428	561	
11	0	0	0	0	652	568	428	560	
12	0	0	0	0	623	568	429	564	
13	0	0	0	0	580	568	429	560	
14	0	0	0	0	528	568	428	560	
15	0	0	0	0	473	568	428	560	
0	0	0	0	0	428	568	428	557	
1	0	0	0	0	391	568	428	560	
2	0	0	0	0	380	568	428	560	
3	0	0	0	0	379	568	429	560	
4	0	0	0	0	379	568	428	564	
5	0	0	0	0	397	568	429	560	
6	0	0	0	0	427	568	428	560	
7	0	0	0	0	460	568	428	560	
8	0	0	0	0	494	568	428	556	
9	0	0	0	0	533	568	427	561	
10	0	0	0	0	566	568	428	560	
11	0	0	0	0	596	567	428	561	
12	0	0	0	0	618	568	429	564	
13	0	0	0	0	634	568	430	561	
14	0	0	0	0	654	568	428	560	
15	0	0	0	0	660	567	428	560	
0	0	0	0	0	627	568	429	556	
1	0	0	0	0	583	567	427	561	
2	0	0	0	0	530	567	428	560	
3	0	0	0	0	476	567	428	561	
4	0	0	0	0	430	568	428	564	
5	0	0	0	0	395	568	430	560	
6	0	0	0	0	372	567	428	560	
7	0	0	0	0	374	567	428	560	
8	0	0	0	0	377	568	428	557	
9	0	0	0	0	387	567	428	561	
10	0	0	0	0	422	567	428	561	
11	0	0	0	0	464	567	428	561	
12	0	0	0	0	499	567	429	564	
13	0	0	0	0	538	567	430	560	
14	0	0	0	0	567	567	428	560	
15	0	0	0	0	599	568	428	560	
0	0	0	0	0	624	567	428	557	
1	0	0	0	0	639	567	428	561	
2	0	0	0	0	659	567	428	560	
3	0	0	0	0	652	567	429	560	
4	0	0	0	0	618	567	428	564	
5	0	0	0	0	580	567	429	560	
6	0	0	0	0	528	568	428	560	
7	0	0	0	0	472	567	429	561	
8	0	0	0	0	430	567	429	558	
9	0	0	0	0	395	567	428	561	
10	0	0	0	0	375	568	429	561	
11	0	0	0	0	372	567	428	561	
12	0	0	0	0	368	568	429	565	
13	0	0	0	0	390	568	429	560	
14	0	0	0	0	426	568	429	560	
15	0	0	0	0	474	568	429	560	
0	0	0	0	0	507	567	428	557	
1	0	0	0	0	535	568	427	560	
2	0	0	0	0	562	568	429	561	
3	0	0	0	0	595	568	428	560	
4	0	0	0	0	624	568	428	564	
5	0	0	0	0	639	567	430	560	
6	0	0	0	0	656	568	428	560	
7	0	0	0	0	661	568	428	560	
8	0	0	0	0	623	567	428	556	
9	0	0	0	0	581	568	427	560	
10	0	0	0	0	531	568	428	560	
11	0	0	0	0	475	568	428	561	
12	0	0	0	0	432	568	428	564	
13	0	0	0	0	401	568	429	561	
14	0	0	0	0	377	568	428	561	
15	0	0	0	0	376	568	429	560	
0	0	0	0	0	373	568	428	556	
1	0	0	0	0	377	567	427	560	
2	0	0	0	0	407	568	428	561	
3	0	0	0	0	456	567	428	561	
4	0	0	0	0	502	568	428	565	
5	0	0	0	0	537	568	429	561	
6	0	0	0	0	561	567	429	561	
7	0	0	0	0	599	567	428	561	
8	0	0	0	0	626	567	428	556	
9	0	0	0	0	645	568	428	561	
10	0	0	0	0	659	568	428	561	
11	0	0	0	0	663	568	428	561	
12	0	0	0	0	622	568	429	564	
13	0	0	0	0	587	567	429	561	
14	0	0	0	0	531	568	428	561	
15	0	0	0	0	474	568	428	561	
0	0	0	0	0	426	568	428	557	
1	0	0	0	0	391	568	428	561	
2	0	0	0	0	374	568	428	561	
3	0	0	0	0	375	567	429	561	
4	0	0	0	0	376	568	429	564	
5	0	0	0	0	389	568	429	560	
6	0	0	0	0	424	567	427	560	
7	0	0	0	0	466	567	428	561	
8	0	0	0	0	504	567	428	557	
9	0	0	0	0	533	568	428	561	
10	0	0	0	0	554	567	428	561	
11	0	0	0	0	592	567	429	561	
12	0	0	0	0	626	567	428	565	
13	0	0	0	0	644	567	430	561	
14	0	0	0	0	655	567	428	561	
15	0	0	0	0	654	567	428	561	
0	0	0	0	0	627	567	429	557	
1	0	0	0	0	582	567	427	561	
2	0	0	0	0	526	566	428	561	
3	0	0	0	0	473	566	429	561	
4	0	0	0	0	431	566	428	565	
5	0	0	0	0	396	566	429	561	
6	0	0	0	0	373	566	428	561	
7	0	0	0	0	376	567	427	561	
8	0	0	0	0	376	566	428	557	
9	0	0	0	0	388	566	427	561	
10	0	0	0	0	414	566	428	560	
11	0	0	0	0	455	567	428	561	
12	0	0	0	0	499	566	428	564	
13	0	0	0	0	532	566	429	561	
14	0	0	0	0	559	567	428	561	
15	0	0	0	0	595	566	428	561	
0	0	0	0	0	624	567	428	557	
1	0	0	0	0	644	567	427	561	
2	0	0	0	0	665	567	428	561	
3	0	0	0	0	657	567	428	561	
4	0	0	0	0	620	568	428	564	
5	0	0	0	0	581	568	429	561	
6	0	0	0	0	528	568	428	561	
7	0	0	0	0	477	567	428	561	
8	0	0	0	0	425	568	428	556	
9	0	0	0	0	382	568	428	560	
10	0	0	0	0	361	568	428	560	
11	0	0	0	0	364	568	428	560	
12	0	0	0	0	374	568	428	564	
13	0	0	0	0	397	568	429	560	
14	0	0	0	0	450	568	428	560	
15	0	0	0	0	472	568	429	560	
0	0	0	0	0	513	568	428	556	
1	0	0	0	0	542	568	427	560	
2	0	0	0	0	574	568	428	560	
3	0	0	0	0	603	568	428	560	
4	0	0	0	0	622	568	428	564	
5	0	0	0	0	643	568	429	560	
6	0	0	0	0	659	568	428	560	
7	0	0	0	0	652	567	428	560	
8	0	0	0	0	619	567	429	556	
9	0	0	0	0	574	567	427	560	
10	0	0	0	0	524	567	429	560	
11	0	0	0	0	470	566	428	560	
12	0	0	0	0	427	566	429	564	
13	0	0	0	0	392	566	429	560	
14	0	0	0	0	368	566	428	560	
15	0	0	0	0	371	566	428	559	
0	0	0	0	0	372	566	428	556	
1	0	0	0	0	385	566	427	560	
2	0	0	0	0	422	565	428	560	
3	0	0	0	0	458	566	428	560	
4	0	0	0	0	494	566	428	564	
5	0	0	0	0	533	566	429	560	
6	0	0	0	0	569	566	429	560	
7	0	0	0	0	597	567	428	560	
8	0	0	0	0	622	567	428	556	
9	0	0	0	0	640	566	428	560	
10	0	0	0	0	657	566	428	560	
11	0	0	0	0	655	566	428	560	
12	0	0	0	0	625	566	428	564	
13	0	0	0	0	586	567	428	560	
14	0	0	0	0	535	567	428	560	
15	0	0	0	0	480	567	427	560	
0	0	0	0	0	430	567	427	557	
1	0	0	0	0	397	568	427	560	
2	0	0	0	0	376	567	427	560	
3	0	0	0	0	373	568	428	560	
4	0	0	0	0	377	568	428	565	
5	0	0	0	0	399	568	429	560	
6	0	0	0	0	424	568	428	560	
7	0	0	0	0	457	568	428	560	
8	0	0	0	0	497	568	428	556	
9	0	0	0	0	529	569	426	560	
10	0	0	0	0	572	568	427	560	
11	0	0	0	0	600	568	428	560	
12	0	0	0	0	616	568	427	564	
13	0	0	0	0	635	569	428	560	
14	0	0	0	0	659	569	427	560	
15	0	0	0	0	655	568	427	560	
0	0	0	0	0	614	569	427	557	
1	0	0	0	0	572	569	427	561	
2	0	0	0	0	526	569	427	561	
3	0	0	0	0	467	569	427	562	
4	0	0	0	0	418	569	427	566	
5	0	0	0	0	399	569	428	561	
6	0	0	0	0	385	569	427	561	
7	0	0	0	0	388	568	428	560	
8	0	0	0	0	386	568	427	557	
9	0	0	0	0	393	568	426	561	
10	0	0	0	0	423	568	427	561	
11	0	0	0	0	468	568	427	561	
12	0	0	0	0	506	568	428	565	
13	0	0	0	0	520	568	428	561	
14	0	0	0	0	571	569	428	561	
15	0	0	0	0	603	568	427	561	
0	0	0	0	0	621	568	428	558	
1	0	0	0	0	639	568	427	562	
2	0	0	0	0	660	568	428	562	
3	0	0	0	0	651	567	428	562	
4	0	0	0	0	619	568	428	566	
5	0	0	0	0	577	567	429	562	
6	0	0	0	0	530	567	428	561	
7	0	0	0	0	469	567	428	562	
8	0	0	0	0	418	567	429	558	
9	0	0	0	0	394	567	427	563	
10	0	0	0	0	385	567	428	562	
11	0	0	0	0	381	566	428	562	
12	0	0	0	0	377	566	429	566	
13	0	0	0	0	391	566	429	562	
14	0	0	0	0	421	566	429	563	
15	0	0	0	0	458	566	428	562	
0	0	0	0	0	495	567	429	558	
1	0	0	0	0	527	567	428	562	
2	0	0	0	0	565	567	428	562	
3	0	0	0	0	592	567	429	562	
4	0	0	0	0	615	568	430	566	
5	0	0	0	0	637	568	431	562	
6	0	0	0	0	668	568	429	562	
7	0	0	0	0	673	568	428	562	
8	0	0	0	0	624	568	429	558	
9	0	0	0	0	577	568	427	562	
10	0	0	0	0	531	568	428	561	
11	0	0	0	0	480	569	429	562	
12	0	0	0	0	427	569	429	566	
13	0	0	0	0	391	569	430	561	
14	0	0	0	0	371	569	429	561	
15	0	0	0	0	371	569	429	560	
0	0	0	0	0	373	569	429	557	
1	0	0	0	0	391	569	428	561	
2	0	0	0	0	419	569	429	560	
3	0	0	0	0	459	569	429	561	
4	0	0	0	0	501	570	429	564	
5	0	0	0	0	540	569	429	561	
6	0	0	0	0	565	569	429	561	
7	0	0	0	0	598	568	429	561	
8	0	0	0	0	621	568	429	557	
9	0	0	0	0	641	568	428	560	
10	0	0	0	0	662	568	429	560	
11	0	0	0	0	665	568	429	560	
12	0	0	0	0	629	568	429	565	
13	0	0	0	0	581	568	429	560	
14	0	0	0	0	525	568	429	560	
15	0	0	0	0	471	568	429	560	
0	0	0	0	0	428	568	428	556	
1	0	0	0	0	388	567	428	560	
2	0	0	0	0	369	568	429	560	
3	0	0	0	0	380	568	429	561	
4	0	0	0	0	381	568	430	565	
5	0	0	0	0	388	568	430	560	
6	0	0	0	0	424	568	428	560	
7	0	0	0	0	457	567	428	561	
8	0	0	0	0	495	568	428	556	
9	0	0	0	0	538	567	428	561	
10	0	0	0	0	563	567	429	561	
11	0	0	0	0	585	568	429	561	
12	0	0	0	0	614	568	429	565	
13	0	0	0	0	636	568	429	560	
14	0	0	0	0	650	567	429	561	
15	0	0	0	0	647	568	429	560	
0	0	0	0	0	617	568	429	557	
1	0	0	0	0	596	568	428	561	
2	0	0	0	0	554	568	430	561	
3	0	0	0	0	489	568	430	561	
4	0	0	0	0	433	568	429	564	
5	0	0	0	0	395	568	430	561	
6	0	0	0	0	374	568	429	561	
7	0	0	0	0	370	569	429	560	
8	0	0	0	0	367	569	428	557	
9	0	0	0	0	383	568	428	561	
10	0	0	0	0	413	568	429	561	
11	0	0	0	0	456	568	429	561	
12	0	0	0	0	499	568	429	565	
13	0	0	0	0	549	568	429	561	
14	0	0	0	0	574	569	428	561	
15	0	0	0	0	614	568	428	561	
0	0	0	0	0	618	568	429	557	
1	0	0	0	0	632	567	428	561	
2	0	0	0	0	660	568	428	561	
3	0	0	0	0	649	568	428	561	
4	0	0	0	0	617	568	429	565	
5	0	0	0	0	587	567	430	561	
6	0	0	0	0	536	567	429	561	
7	0	0	0	0	468	567	429	561	
8	0	0	0	0	422	567	428	557	
9	0	0	0	0	396	567	428	560	
10	0	0	0	0	361	567	428	561	
11	0	0	0	0	372	567	427	561	
12	0	0	0	0	382	566	428	565	
13	0	0	0	0	395	567	428	561	
14	0	0	0	0	424	567	428	562	
15	0	0	0	0	448	567	428	562	
0	0	0	0	0	495	567	428	558	
1	0	0	0	0	544	567	427	561	
2	0	0	0	0	559	567	428	561	
3	0	0	0	0	586	567	427	562	
4	0	0	0	0	632	567	428	565	
5	0	0	0	0	657	568	429	562	
6	0	0	0	0	681	567	428	562	
7	0	0	0	0	673	568	428	561	
8	0	0	0	0	634	568	428	558	
9	0	0	0	0	589	568	427	561	
10	0	0	0	0	535	568	428	562	
11	0	0	0	0	471	567	428	562	
12	0	0	0	0	415	567	428	566	
13	0	0	0	0	384	568	429	562	
14	0	0	0	0	368	568	428	562	
15	0	0	0	0	371	567	428	562	
0	0	0	0	0	368	567	428	558	
1	0	0	0	0	375	567	427	562	
2	0	0	0	0	411	567	429	562	
3	0	0	0	0	460	567	428	562	
4	0	0	0	0	508	567	429	566	
5	0	0	0	0	535	567	429	562	
6	0	0	0	0	571	567	428	562	
7	0	0	0	0	606	567	428	562	
8	0	0	0	0	629	566	428	558	
9	0	0	0	0	640	566	427	562	
10	0	0	0	0	657	567	428	562	
11	0	0	0	0	654	567	428	562	
12	0	0	0	0	615	567	428	566	
13	0	0	0	0	572	567	429	561	
14	0	0	0	0	526	567	428	561	
15	0	0	0	0	480	567	428	561	
0	0	0	0	0	440	568	428	557	
1	0	0	0	0	407	567	427	561	
2	0	0	0	0	382	567	428	561	
3	0	0	0	0	374	567	428	562	
4	0	0	0	0	375	567	428	565	
5	0	0	0	0	390	567	429	561	
6	0	0	0	0	422	567	428	561	
7	0	0	0	0	447	567	429	561	
8	0	0	0	0	480	566	428	558	
9	0	0	0	0	519	566	427	561	
10	0	0	0	0	555	566	428	561	
11	0	0	0	0	585	566	428	561	
12	0	0	0	0	611	566	428	565	
13	0	0	0	0	634	566	429	561	
14	0	0	0	0	659	566	429	562	
15	0	0	0	0	666	566	428	560	
0	0	0	0	0	632	567	428	556	
1	0	0	0	0	588	567	427	560	
2	0	0	0	0	526	567	428	560	
3	0	0	0	0	462	568	428	560	
4	0	0	0	0	417	568	428	563	
5	0	0	0	0	407	569	428	559	
6	0	0	0	0	399	569	427	559	
7	0	0	0	0	386	570	427	559	
8	0	0	0	0	408	570	427	555	
9	0	0	0	0	393	571	426	559	
10	0	0	0	0	425	570	427	559	
11	0	0	0	0	466	571	427	559	
12	0	0	0	0	506	571	427	563	
13	0	0	0	0	536	570	427	559	
14	0	0	0	0	568	569	427	559	
15	0	0	0	0	582	569	427	559	
0	0	0	0	0	609	568	427	556	
1	0	0	0	0	633	569	427	560	
2	0	0	0	0	650	567	427	560	
3	0	0	0	0	637	567	428	561	
4	0	0	0	0	619	567	429	565	
5	0	0	0	0	588	567	429	561	
6	0	0	0	0	526	567	429	561	
7	0	0	0	0	467	566	429	562	
8	0	0	0	0	419	566	428	558	
9	0	0	0	0	390	566	428	562	
10	0	0	0	0	369	566	430	562	
11	0	0	0	0	372	566	429	561	
12	0	0	0	0	381	566	430	565	
13	0	0	0	0	393	566	431	561	
14	0	0	0	0	415	566	429	561	
15	0	0	0	0	459	567	429	561	
0	0	0	0	0	519	567	430	557	
1	0	0	0	0	536	567	428	561	
2	0	0	0	0	554	567	429	561	
3	0	0	0	0	614	567	429	561	
4	0	0	0	0	641	567	429	565	
5	0	0	0	0	643	567	430	561	
6	0	0	0	0	670	567	428	561	
7	0	0	0	0	665	568	428	560	
8	0	0	0	0	635	568	429	557	
9	0	0	0	0	584	567	428	560	
10	0	0	0	0	526	568	428	560	
11	0	0	0	0	468	568	429	561	
12	0	0	0	0	433	567	429	564	
13	0	0	0	0	406	568	430	561	
14	0	0	0	0	374	568	429	561	
15	0	0	0	0	373	568	428	560	
0	0	0	0	0	384	568	428	556	
1	0	0	0	0	378	568	427	561	
2	0	0	0	0	401	568	428	561	
3	0	0	0	0	429	568	428	560	
4	0	0	0	0	463	568	429	565	
5	0	0	0	0	509	567	429	561	
6	0	0	0	0	555	568	429	561	
7	0	0	0	0	592	567	428	561	
8	0	0	0	0	631	567	428	557	
9	0	0	0	0	668	567	428	561	
10	0	0	0	0	703	568	429	561	
11	0	0	0	0	691	567	428	561	
12	0	0	0	0	625	567	429	565	
13	0	0	0	0	574	568	429	561	
14	0	0	0	0	495	568	429	561	
15	0	0	0	0	450	568	428	562	
0	0	0	0	0	408	567	429	557	
1	0	0	0	0	397	567	428	562	
2	0	0	0	0	387	567	429	561	
3	0	0	0	0	422	568	428	562	
4	0	0	0	0	411	567	428	566	
5	0	0	0	0	353	567	430	562	
6	0	0	0	0	371	567	429	563	
7	0	0	0	0	446	567	429	562	
8	0	0	0	0	499	567	428	559	
9	0	0	0	0	558	567	428	563	
10	0	0	0	0	597	566	429	563	
11	0	0	0	0	749	566	429	564	
12	0	0	0	0	704	566	429	568	
13	0	0	0	0	609	566	430	564	
14	0	0	0	0	623	566	429	564	
15	0	0	0	0	632	565	429	564	
0	0	0	0	0	601	565	429	560	
1	0	0	0	0	566	565	428	564	
2	0	0	0	0	524	564	430	564	
3	0	0	0	0	460	565	429	565	
4	0	0	0	0	409	565	430	568	
5	0	0	0	0	367	565	431	565	
6	0	0	0	0	359	565	430	564	
7	0	0	0	0	361	564	431	564	
8	0	0	0	0	356	565	430	560	
9	0	0	0	0	357	565	429	564	
10	0	0	0	0	398	566	430	564	
11	0	0	0	0	436	566	429	564	
12	0	0	0	0	462	566	430	567	
13	0	0	0	0	525	566	430	563	
14	0	0	0	0	620	566	429	563	
15	0	0	0	0	679	566	430	563	
0	0	0	0	0	666	566	429	560	
1	0	0	0	0	711	566	429	563	
2	0	0	0	0	698	566	429	564	
3	0	0	0	0	641	565	429	565	
4	0	0	0	0	586	565	429	568	
5	0	0	0	0	523	565	430	565	
6	0	0	0	0	505	566	430	565	
7	0	0	0	0	509	565	430	565	
8	0	0	0	0	429	565	430	562	
9	0	0	0	0	380	566	429	565	
10	0	0	0	0	359	565	430	565	
11	0	0	0	0	351	566	430	565	
12	0	0	0	0	355	566	430	569	
13	0	0	0	0	389	567	431	564	
14	0	0	0	0	430	567	430	565	
15	0	0	0	0	473	567	430	565	
0	0	0	0	0	474	567	430	560	
1	0	0	0	0	486	568	429	564	
2	0	0	0	0	510	567	430	564	
3	0	0	0	0	541	568	429	564	
4	0	0	0	0	608	568	429	567	
5	0	0	0	0	590	568	430	563	
6	0	0	0	0	695	568	429	563	
7	0	0	0	0	733	569	429	563	
8	0	0	0	0	789	569	429	560	
9	0	0	0	0	711	568	428	564	
10	0	0	0	0	570	569	429	564	
11	0	0	0	0	668	568	428	564	
12	0	0	0	0	508	568	429	570	
13	0	0	0	0	380	568	429	566	
14	0	0	0	0	321	568	429	566	
15	0	0	0	0	310	567	429	566	
0	0	0	0	0	275	567	430	563	
1	0	0	0	0	303	567	427	566	
2	0	0	0	0	404	566	429	566	
3	0	0	0	0	433	566	430	565	
4	0	0	0	0	384	567	430	568	
5	0	0	0	0	446	567	430	564	
6	0	0	0	0	504	567	429	564	
7	0	0	0	0	556	567	428	563	
8	0	0	0	0	546	567	428	559	
9	0	0	0	0	697	568	428	563	
10	0	0	0	0	870	567	428	563	
11	0	0	0	0	722	568	429	563	
12	0	0	0	0	577	568	428	567	
13	0	0	0	0	639	568	429	562	
14	0	0	0	0	626	569	428	561	
15	0	0	0	0	534	569	428	561	
0	0	0	0	0	442	569	429	558	
1	0	0	0	0	513	569	428	562	
2	0	0	0	0	473	569	428	561	
3	0	0	0	0	379	569	428	561	
4	0	0	0	0	387	568	428	563	
5	0	0	0	0	225	568	429	559	
6	0	0	0	0	125	568	428	559	
7	0	0	0	0	250	568	427	557	
8	0	0	0	0	391	567	427	552	
9	0	0	0	0	430	567	427	555	
10	0	0	0	0	520	566	428	554	
11	0	0	0	0	903	564	427	553	
12	0	0	0	0	909	563	428	556	
13	0	0	0	0	627	563	428	552	
14	0	0	0	0	477	563	427	551	
15	0	0	0	0	407	561	426	551	
0	0	0	0	0	312	562	425	548	
1	0	0	0	0	535	560	425	551	
2	0	0	0	0	862	558	426	552	
3	0	0	0	0	799	556	425	555	
4	0	0	0	0	1022	553	426	562	
5	0	0	0	0	1022	551	427	562	
6	0	0	0	0	795	549	425	567	
7	0	0	0	0	245	546	426	571	
8	0	0	0	0	0	543	427	572	
9	0	0	0	0	0	540	426	580	
10	0	0	0	0	0	538	428	584	
11	0	0	0	0	49	536	430	588	
12	0	0	0	0	238	534	431	595	
13	0	0	0	0	296	533	432	593	
14	0	0	0	0	248	532	432	594	
15	0	0	0	0	428	532	432	595	
0	0	0	0	0	697	533	433	591	
1	0	0	0	0	691	534	432	593	
2	0	0	0	0	569	536	434	592	
3	0	0	0	0	570	538	435	590	
4	0	0	0	0	544	541	435	592	
5	0	0	0	0	648	544	435	588	
6	0	0	0	0	1022	547	435	586	
7	0	0	0	0	1022	551	433	586	
8	0	0	0	0	668	554	432	582	
9	0	0	0	0	353	557	430	586	
10	0	0	0	0	49	560	430	585	
11	0	0	0	0	70	563	429	584	
12	0	0	0	0	206	566	427	587	
13	0	0	0	0	285	570	426	583	
14	0	0	0	0	397	574	424	582	
15	0	0	0	0	507	575	423	578	
0	0	0	0	0	538	576	423	572	
1	0	0	0	0	589	577	423	575	
2	0	0	0	0	724	577	423	574	
3	0	0	0	0	751	579	421	574	
4	0	0	0	0	739	579	421	576	
5	0	0	0	0	562	581	424	569	
6	0	0	0	0	551	581	425	566	
7	0	0	0	0	563	580	426	564	
8	0	0	0	0	505	580	428	558	
9	0	0	0	0	472	581	426	560	
10	0	0	0	0	471	582	427	561	
11	0	0	0	0	486	582	427	559	
12	0	0	0	0	488	583	427	562	
13	0	0	0	0	476	585	427	558	
14	0	0	0	0	562	586	426	560	
15	0	0	0	0	529	588	426	560	
0	0	0	0	0	440	589	425	556	
1	0	0	0	0	443	589	425	559	
2	0	0	0	0	427	591	425	560	
3	0	0	0	0	389	592	425	563	
4	0	0	0	0	405	592	425	568	
5	0	0	0	0	384	593	426	566	
6	0	0	0	0	428	594	425	566	
7	0	0	0	0	519	595	425	563	
8	0	0	0	0	621	595	425	559	
9	0	0	0	0	605	595	425	563	
10	0	0	0	0	541	594	427	565	
11	0	0	0	0	561	594	425	568	
12	0	0	0	0	574	594	427	573	
13	0	0	0	0	593	592	428	571	
14	0	0	0	0	569	590	428	572	
15	0	0	0	0	537	588	430	575	
0	0	0	0	0	495	586	431	574	
1	0	0	0	0	452	582	432	581	
2	0	0	0	0	441	577	434	586	
3	0	0	0	0	437	574	437	593	
4	0	0	0	0	423	568	440	606	
5	0	0	0	0	430	559	444	612	
6	0	0	0	0	457	549	447	625	
7	0	0	0	0	463	537	453	648	
8	0	0	0	0	495	519	457	673	
9	0	0	0	0	563	499	461	715	
10	0	0	0	0	608	478	467	756	
11	0	0	0	0	625	445	475	778	
12	0	0	0	0	646	431	488	777	
13	0	0	0	0	660	451	505	780	
14	0	0	0	0	687	498	528	828	
15	0	0	0	0	705	573	573	869	
0	0	0	0	0	674	584	559	875	
1	0	0	0	0	625	669	572	772	
2	0	0	0	0	556	719	564	661	
3	0	0	0	0	478	744	539	616	
4	0	0	0	0	421	766	504	616	
5	0	0	0	0	373	792	458	595	
6	0	0	0	0	340	837	423	577	
7	0	0	0	0	339	891	403	563	
8	0	0	0	0	353	1018	387	521	
9	0	0	0	0	373	1020	376	464	
10	0	0	0	0	408	1020	369	408	
11	0	0	0	0	442	1020	357	372	
12	0	0	0	0	478	1020	342	355	
13	0	0	0	0	517	1020	330	348	
14	0	0	0	0	541	842	316	352	
15	0	0	0	0	555	794	312	354	
0	0	0	0	0	583	742	312	351	
1	0	0	0	0	601	687	315	355	
2	0	0	0	0	617	634	321	360	
3	0	0	0	0	610	582	333	365	
4	0	0	0	0	573	532	349	378	
5	0	0	0	0	531	491	365	384	
6	0	0	0	0	486	460	380	395	
7	0	0	0	0	443	441	398	405	
8	0	0	0	0	421	434	412	409	
9	0	0	0	0	403	437	428	421	
10	0	0	0	0	391	446	448	423	
11	0	0	0	0	396	459	461	429	
12	0	0	0	0	403	471	471	441	
13	0	0	0	0	420	480	478	444	
14	0	0	0	0	453	487	478	449	
15	0	0	0	0	486	490	476	454	
0	0	0	0	0	517	492	468	456	
1	0	0	0	0	552	493	455	467	
2	0	0	0	0	581	492	444	474	
3	0	0	0	0	611	491	430	482	
4	0	0	0	0	638	488	419	493	
5	0	0	0	0	657	485	411	497	
6	0	0	0	0	680	481	402	505	
7	0	0	0	0	677	476	397	512	
8	0	0	0	0	639	472	395	515	
9	0	0	0	0	598	468	395	524	
10	0	0	0	0	544	466	397	529	
11	0	0	0	0	487	463	399	534	
12	0	0	0	0	438	461	405	542	
13	0	0	0	0	401	457	410	542	
14	0	0	0	0	376	455	415	546	
15	0	0	0	0	370	452	421	551	
0	0	0	0	0	369	451	426	550	
1	0	0	0	0	380	450	430	557	
2	0	0	0	0	416	450	437	560	
3	0	0	0	0	447	451	441	564	
4	0	0	0	0	485	454	447	571	
5	0	0	0	0	523	457	451	570	
6	0	0	0	0	552	462	453	572	
7	0	0	0	0	589	468	455	575	
8	0	0	0	0	616	475	458	572	
9	0	0	0	0	635	483	460	577	
10	0	0	0	0	648	490	461	579	
11	0	0	0	0	645	499	461	579	
12	0	0	0	0	629	507	460	583	
13	0	0	0	0	596	516	462	579	
14	0	0	0	0	536	526	459	578	
15	0	0	0	0	478	534	457	578	
0	0	0	0	0	433	543	454	573	
1	0	0	0	0	402	551	451	577	
2	0	0	0	0	375	559	449	577	
3	0	0	0	0	370	568	446	577	
4	0	0	0	0	372	575	443	581	
5	0	0	0	0	387	582	441	576	
6	0	0	0	0	420	588	438	576	
7	0	0	0	0	460	594	436	575	
8	0	0	0	0	508	599	435	570	
9	0	0	0	0	540	603	432	573	
10	0	0	0	0	565	605	432	574	
11	0	0	0	0	593	608	432	572	
12	0	0	0	0	619	610	433	572	
13	0	0	0	0	635	610	433	568	
14	0	0	0	0	657	609	431	569	
15	0	0	0	0	652	608	431	568	
0	0	0	0	0	619	606	431	563	
1	0	0	0	0	579	604	431	567	
2	0	0	0	0	522	601	432	566	
3	0	0	0	0	468	598	432	565	
4	0	0	0	0	423	595	432	569	
5	0	0	0	0	386	592	435	563	
6	0	0	0	0	368	589	433	563	
7	0	0	0	0	369	588	434	561	
8	0	0	0	0	366	588	434	553	
9	0	0	0	0	385	586	431	557	
10	0	0	0	0	423	585	431	558	
11	0	0	0	0	467	583	430	557	
12	0	0	0	0	508	582	430	560	
13	0	0	0	0	531	581	430	558	
14	0	0	0	0	565	582	428	558	
15	0	0	0	0	597	582	428	557	
0	0	0	0	0	623	583	427	552	
1	0	0	0	0	637	583	426	556	
2	0	0	0	0	671	584	425	556	
3	0	0	0	0	655	588	425	553	
4	0	0	0	0	621	590	424	556	
5	0	0	0	0	575	590	423	554	
6	0	0	0	0	519	590	423	554	
7	0	0	0	0	470	590	423	555	
8	0	0	0	0	430	590	423	551	
9	0	0	0	0	406	589	421	556	
10	0	0	0	0	391	589	423	557	
11	0	0	0	0	378	588	423	558	
12	0	0	0	0	368	588	424	562	
13	0	0	0	0	378	589	424	559	
14	0	0	0	0	409	588	424	559	
15	0	0	0	0	446	587	424	560	
0	0	0	0	0	483	585	424	557	
1	0	0	0	0	534	584	423	562	
2	0	0	0	0	572	583	426	564	
3	0	0	0	0	627	581	427	564	
4	0	0	0	0	647	579	427	569	
5	0	0	0	0	647	579	428	567	
6	0	0	0	0	654	577	428	568	
7	0	0	0	0	649	575	429	568	
8	0	0	0	0	610	573	428	567	
9	0	0	0	0	558	572	428	572	
10	0	0	0	0	528	570	430	573	
11	0	0	0	0	487	569	431	574	
12	0	0	0	0	433	567	432	578	
13	0	0	0	0	397	567	432	575	
14	0	0	0	0	382	565	432	575	
15	0	0	0	0	379	565	432	576	
0	0	0	0	0	374	563	432	571	
1	0	0	0	0	390	563	431	576	
2	0	0	0	0	423	563	432	577	
3	0	0	0	0	448	561	432	578	
4	0	0	0	0	486	560	433	583	
5	0	0	0	0	525	560	434	581	
6	0	0	0	0	557	559	432	582	
7	0	0	0	0	616	557	433	582	
8	0	0	0	0	664	557	433	578	
9	0	0	0	0	641	556	432	582	
10	0	0	0	0	640	556	433	583	
11	0	0	0	0	671	555	433	583	
12	0	0	0	0	633	555	434	587	
13	0	0	0	0	586	555	434	583	
14	0	0	0	0	530	555	434	583	
15	0	0	0	0	470	555	434	584	
0	0	0	0	0	422	555	434	579	
1	0	0	0	0	383	554	434	584	
2	0	0	0	0	360	554	435	584	
3	0	0	0	0	364	555	435	583	
4	0	0	0	0	376	554	435	588	
5	0	0	0	0	396	554	436	584	
6	0	0	0	0	423	554	435	583	
7	0	0	0	0	454	555	435	583	
8	0	0	0	0	495	555	435	579	
9	0	0	0	0	535	556	434	582	
10	0	0	0	0	564	556	435	582	
11	0	0	0	0	598	556	435	582	
12	0	0	0	0	624	557	435	585	
13	0	0	0	0	641	557	435	580	
14	0	0	0	0	660	557	434	581	
15	0	0	0	0	655	557	435	580	
0	0	0	0	0	623	558	435	576	
1	0	0	0	0	585	558	433	579	
2	0	0	0	0	528	559	434	579	
3	0	0	0	0	470	559	434	579	
4	0	0	0	0	423	560	435	582	
5	0	0	0	0	381	560	435	577	
6	0	0	0	0	369	560	434	577	
7	0	0	0	0	380	560	434	576	
8	0	0	0	0	390	560	433	573	
9	0	0	0	0	393	561	432	576	
10	0	0	0	0	422	561	433	575	
11	0	0	0	0	455	561	433	575	
12	0	0	0	0	496	562	432	578	
13	0	0	0	0	535	563	433	574	
14	0	0	0	0	568	563	432	573	
15	0	0	0	0	599	564	432	572	
0	0	0	0	0	625	563	432	568	
1	0	0	0	0	642	564	432	572	
2	0	0	0	0	661	564	431	571	
3	0	0	0	0	658	565	432	571	
4	0	0	0	0	624	565	432	573	
5	0	0	0	0	583	566	432	569	
6	0	0	0	0	527	566	431	569	
7	0	0	0	0	473	567	431	568	
8	0	0	0	0	427	566	430	563	
9	0	0	0	0	392	566	429	568	
10	0	0	0	0	372	567	431	567	
11	0	0	0	0	374	567	430	566	
12	0	0	0	0	375	567	431	570	
13	0	0	0	0	384	568	432	566	
14	0	0	0	0	423	568	430	564	
15	0	0	0	0	461	567	430	564	
0	0	0	0	0	494	568	429	560	
1	0	0	0	0	536	567	428	563	
2	0	0	0	0	569	567	430	562	
3	0	0	0	0	600	567	430	562	
4	0	0	0	0	625	567	429	566	
5	0	0	0	0	645	568	430	562	
6	0	0	0	0	669	567	429	562	
7	0	0	0	0	658	567	428	561	
8	0	0	0	0	623	567	428	557	
9	0	0	0	0	581	566	426	560	
10	0	0	0	0	530	566	428	560	
11	0	0	0	0	475	567	428	560	
12	0	0	0	0	429	567	429	563	
13	0	0	0	0	396	567	430	559	
14	0	0	0	0	371	567	429	559	
15	0	0	0	0	371	568	429	559	
0	0	0	0	0	374	567	429	556	
1	0	0	0	0	385	568	428	560	
2	0	0	0	0	427	568	430	560	
3	0	0	0	0	469	567	430	560	
4	0	0	0	0	498	568	430	563	
5	0	0	0	0	534	568	431	560	
6	0	0	0	0	568	568	431	560	
7	0	0	0	0	599	568	431	560	
8	0	0	0	0	625	568	431	555	
9	0	0	0	0	640	568	429	560	
10	0	0	0	0	664	568	431	559	
11	0	0	0	0	656	567	431	559	
12	0	0	0	0	618	567	430	563	
13	0	0	0	0	577	566	432	559	
14	0	0	0	0	528	566	431	560	
15	0	0	0	0	476	565	431	560	
0	0	0	0	0	427	564	431	556	
1	0	0	0	0	393	563	431	560	
2	0	0	0	0	373	562	430	560	
3	0	0	0	0	360	562	431	560	
4	0	0	0	0	382	561	431	564	
5	0	0	0	0	398	561	432	560	
6	0	0	0	0	428	561	431	560	
7	0	0	0	0	464	561	431	560	
8	0	0	0	0	495	561	431	556	
9	0	0	0	0	536	561	430	560	
10	0	0	0	0	562	561	431	560	
11	0	0	0	0	593	561	430	560	
12	0	0	0	0	623	561	431	564	
13	0	0	0	0	646	561	432	560	
14	0	0	0	0	664	561	431	561	
15	0	0	0	0	659	562	430	561	
0	0	0	0	0	626	562	430	557	
1	0	0	0	0	581	561	429	560	
2	0	0	0	0	521	561	430	560	
3	0	0	0	0	469	562	431	560	
4	0	0	0	0	429	562	431	563	
5	0	0	0	0	398	562	431	560	
6	0	0	0	0	375	562	430	559	
7	0	0	0	0	375	563	431	559	
8	0	0	0	0	377	563	431	556	
9	0	0	0	0	390	563	429	560	
10	0	0	0	0	422	562	431	559	
11	0	0	0	0	457	562	430	559	
12	0	0	0	0	496	563	430	563	
13	0	0	0	0	535	563	432	559	
14	0	0	0	0	566	563	430	558	
15	0	0	0	0	597	563	430	559	
0	0	0	0	0	623	563	430	555	
1	0	0	0	0	643	563	430	559	
2	0	0	0	0	660	563	430	559	
3	0	0	0	0	659	563	429	559	
4	0	0	0	0	617	563	429	562	
5	0	0	0	0	581	564	430	559	
6	0	0	0	0	531	563	430	559	
7	0	0	0	0	472	563	430	559	
8	0	0	0	0	428	563	430	555	
9	0	0	0	0	396	563	428	559	
10	0	0	0	0	377	563	429	559	
11	0	0	0	0	372	564	430	559	
12	0	0	0	0	372	564	431	563	
13	0	0	0	0	390	564	431	559	
14	0	0	0	0	424	564	430	559	
15	0	0	0	0	460	564	430	559	
0	0	0	0	0	499	565	430	556	
1	0	0	0	0	536	565	428	560	
2	0	0	0	0	564	565	429	559	
3	0	0	0	0	595	565	430	559	
4	0	0	0	0	619	566	430	563	
5	0	0	0	0	632	565	431	559	
6	0	0	0	0	653	566	428	560	
7	0	0	0	0	662	565	428	559	
8	0	0	0	0	627	564	427	555	
9	0	0	0	0	588	564	424	560	
10	0	0	0	0	532	566	427	560	
11	0	0	0	0	476	568	427	560	
12	0	0	0	0	432	570	428	563	
13	0	0	0	0	401	572	429	560	
14	0	0	0	0	378	573	428	560	
15	0	0	0	0	375	574	429	560	
0	0	0	0	0	376	575	429	556	
1	0	0	0	0	389	574	429	561	
2	0	0	0	0	417	575	430	562	
3	0	0	0	0	451	574	429	562	
4	0	0	0	0	495	574	431	566	
5	0	0	0	0	538	574	432	563	
6	0	0	0	0	568	573	431	563	
7	0	0	0	0	596	572	431	563	
8	0	0	0	0	625	572	431	559	
9	0	0	0	0	645	572	430	563	
10	0	0	0	0	659	572	431	562	
11	0	0	0	0	655	571	431	562	
12	0	0	0	0	620	571	430	567	
13	0	0	0	0	579	570	431	562	
14	0	0	0	0	525	569	430	562	
15	0	0	0	0	470	569	430	562	
0	0	0	0	0	427	569	429	558	
1	0	0	0	0	394	568	429	563	
2	0	0	0	0	376	567	430	562	
3	0	0	0	0	376	566	430	562	
4	0	0	0	0	376	567	430	567	
5	0	0	0	0	390	567	431	563	
6	0	0	0	0	420	566	430	562	
7	0	0	0	0	457	566	430	563	
8	0	0	0	0	498	566	430	559	
9	0	0	0	0	534	565	429	562	
10	0	0	0	0	566	565	429	563	
11	0	0	0	0	597	565	430	563	
12	0	0	0	0	621	565	430	567	
13	0	0	0	0	641	565	430	563	
14	0	0	0	0	660	565	430	563	
15	0	0	0	0	658	565	430	563	
0	0	0	0	0	622	565	430	560	
1	0	0	0	0	579	565	429	564	
2	0	0	0	0	526	565	430	564	
3	0	0	0	0	467	566	430	564	
4	0	0	0	0	423	566	431	568	
5	0	0	0	0	397	566	432	564	
6	0	0	0	0	385	566	430	564	
7	0	0	0	0	384	566	430	564	
8	0	0	0	0	379	566	430	561	
9	0	0	0	0	393	566	430	564	
10	0	0	0	0	426	566	431	565	
11	0	0	0	0	459	567	430	565	
12	0	0	0	0	499	567	430	569	
13	0	0	0	0	536	568	431	565	
14	0	0	0	0	566	567	431	565	
15	0	0	0	0	596	568	430	565	
0	0	0	0	0	622	568	431	561	
1	0	0	0	0	638	568	429	565	
2	0	0	0	0	659	568	430	566	
3	0	0	0	0	656	568	431	565	
4	0	0	0	0	622	568	431	569	
5	0	0	0	0	582	568	431	565	
6	0	0	0	0	530	569	430	566	
7	0	0	0	0	472	568	430	565	
8	0	0	0	0	426	569	430	563	
9	0	0	0	0	392	569	430	566	
10	0	0	0	0	370	568	429	566	
11	0	0	0	0	369	568	430	566	
12	0	0	0	0	375	569	430	569	
13	0	0	0	0	396	568	431	565	
14	0	0	0	0	436	568	430	565	
15	0	0	0	0	462	568	429	564	
0	0	0	0	0	491	568	429	561	
1	0	0	0	0	528	568	428	566	
2	0	0	0	0	563	568	429	565	
3	0	0	0	0	601	567	429	564	
4	0	0	0	0	628	568	428	568	
5	0	0	0	0	646	568	430	564	
6	0	0	0	0	662	568	429	563	
7	0	0	0	0	657	567	428	563	
8	0	0	0	0	620	568	428	559	
9	0	0	0	0	579	567	427	563	
10	0	0	0	0	528	568	428	563	
11	0	0	0	0	473	568	428	563	
12	0	0	0	0	428	568	428	567	
13	0	0	0	0	397	568	428	563	
14	0	0	0	0	372	569	428	563	
15	0	0	0	0	374	569	428	563	
0	0	0	0	0	376	568	428	560	
1	0	0	0	0	392	569	428	563	
2	0	0	0	0	425	569	428	563	
3	0	0	0	0	456	569	427	563	
4	0	0	0	0	497	569	428	567	
5	0	0	0	0	537	569	428	563	
6	0	0	0	0	567	569	427	563	
7	0	0	0	0	598	569	428	563	
8	0	0	0	0	621	569	427	560	
9	0	0	0	0	639	569	427	563	
10	0	0	0	0	658	569	428	563	
11	0	0	0	0	657	570	428	563	
12	0	0	0	0	618	570	427	567	
13	0	0	0	0	575	570	429	563	
14	0	0	0	0	528	570	428	563	
15	0	0	0	0	472	569	427	563	
0	0	0	0	0	427	569	428	558	
1	0	0	0	0	399	570	427	563	
2	0	0	0	0	377	570	428	563	
3	0	0	0	0	377	570	428	563	
4	0	0	0	0	380	569	428	567	
5	0	0	0	0	395	569	429	563	
6	0	0	0	0	427	570	427	563	
7	0	0	0	0	460	569	427	563	
8	0	0	0	0	493	570	428	559	
9	0	0	0	0	535	570	426	563	
10	0	0	0	0	569	570	428	563	
11	0	0	0	0	596	569	428	563	
12	0	0	0	0	620	570	428	567	
13	0	0	0	0	642	571	429	563	
14	0	0	0	0	655	570	427	563	
15	0	0	0	0	654	571	427	563	
0	0	0	0	0	620	570	427	559	
1	0	0	0	0	583	570	426	563	
2	0	0	0	0	530	570	427	563	
3	0	0	0	0	474	571	428	563	
4	0	0	0	0	429	570	427	567	
5	0	0	0	0	396	571	428	563	
6	0	0	0	0	374	570	427	563	
7	0	0	0	0	371	570	428	564	
8	0	0	0	0	379	570	427	559	
9	0	0	0	0	394	570	427	563	
10	0	0	0	0	416	570	427	563	
11	0	0	0	0	448	570	428	563	
12	0	0	0	0	493	570	428	566	
13	0	0	0	0	544	570	428	563	
14	0	0	0	0	568	569	427	562	
15	0	0	0	0	600	569	427	562	
0	0	0	0	0	625	570	428	558	
1	0	0	0	0	642	570	427	562	
2	0	0	0	0	663	570	428	562	
3	0	0	0	0	659	571	428	562	
4	0	0	0	0	622	570	428	566	
5	0	0	0	0	579	571	428	561	
6	0	0	0	0	528	572	427	561	
7	0	0	0	0	470	572	426	561	
8	0	0	0	0	432	572	428	558	
9	0	0	0	0	400	572	426	561	
10	0	0	0	0	377	572	427	561	
11	0	0	0	0	375	572	427	562	
12	0	0	0	0	378	572	428	565	
13	0	0	0	0	390	572	428	561	
14	0	0	0	0	423	572	427	560	
15	0	0	0	0	457	572	428	561	
0	0	0	0	0	496	572	428	557	
1	0	0	0	0	534	572	426	561	
2	0	0	0	0	565	572	428	561	
3	0	0	0	0	598	571	427	562	
4	0	0	0	0	621	572	428	565	
5	0	0	0	0	637	571	428	561	
6	0	0	0	0	658	572	428	561	
7	0	0	0	0	653	571	427	560	
8	0	0	0	0	623	571	427	556	
9	0	0	0	0	582	571	426	560	
10	0	0	0	0	526	571	428	560	
11	0	0	0	0	475	571	427	561	
12	0	0	0	0	429	571	428	564	
13	0	0	0	0	399	571	429	560	
14	0	0	0	0	377	570	427	561	
15	0	0	0	0	375	571	427	560	
0	0	0	0	0	375	571	427	556	
1	0	0	0	0	390	571	426	560	
2	0	0	0	0	423	571	427	560	
3	0	0	0	0	465	571	427	561	
4	0	0	0	0	507	571	427	564	
5	0	0	0	0	538	570	428	560	
6	0	0	0	0	563	571	427	560	
7	0	0	0	0	593	570	428	560	
8	0	0	0	0	621	571	427	556	
9	0	0	0	0	639	571	426	560	
10	0	0	0	0	657	571	428	560	
11	0	0	0	0	655	570	427	559	
12	0	0	0	0	615	571	428	564	
13	0	0	0	0	576	571	428	560	
14	0	0	0	0	528	572	427	559	
15	0	0	0	0	481	571	427	560	
0	0	0	0	0	432	572	427	556	
1	0	0	0	0	396	571	427	560	
2	0	0	0	0	380	572	428	560	
3	0	0	0	0	376	571	426	560	
4	0	0	0	0	369	571	427	564	
5	0	0	0	0	383	571	428	560	
6	0	0	0	0	420	571	427	560	
7	0	0	0	0	467	571	427	560	
8	0	0	0	0	507	571	427	556	
9	0	0	0	0	541	571	427	560	
10	0	0	0	0	566	571	428	560	
11	0	0	0	0	593	571	427	560	
12	0	0	0	0	619	571	427	564	
13	0	0	0	0	638	572	428	560	
14	0	0	0	0	657	572	427	560	
15	0	0	0	0	654	571	427	560	
0	0	0	0	0	624	572	427	557	
1	0	0	0	0	579	572	426	561	
2	0	0	0	0	520	572	427	560	
3	0	0	0	0	475	572	427	561	
4	0	0	0	0	435	572	426	564	
5	0	0	0	0	400	572	428	561	
6	0	0	0	0	378	572	427	560	
7	0	0	0	0	377	572	427	561	
8	0	0	0	0	379	572	426	557	
9	0	0	0	0	390	571	426	561	
10	0	0	0	0	422	571	427	560	
11	0	0	0	0	460	571	427	560	
12	0	0	0	0	498	571	427	565	
13	0	0	0	0	535	571	428	560	
14	0	0	0	0	561	572	428	561	
15	0	0	0	0	593	571	427	560	
0	0	0	0	0	618	571	427	556	
1	0	0	0	0	636	571	426	560	
2	0	0	0	0	659	571	427	560	
3	0	0	0	0	655	570	428	560	
4	0	0	0	0	622	571	427	564	
5	0	0	0	0	579	571	428	560	
6	0	0	0	0	526	571	428	560	
7	0	0	0	0	474	570	428	560	
8	0	0	0	0	429	570	427	556	
9	0	0	0	0	396	570	427	561	
10	0	0	0	0	378	570	428	561	
11	0	0	0	0	378	570	428	561	
12	0	0	0	0	377	571	428	565	
13	0	0	0	0	395	569	428	560	
14	0	0	0	0	425	570	427	561	
15	0	0	0	0	461	570	427	561	
0	0	0	0	0	499	570	428	557	
1	0	0	0	0	533	570	426	561	
2	0	0	0	0	562	569	427	560	
3	0	0	0	0	596	569	428	561	
4	0	0	0	0	617	569	428	564	
5	0	0	0	0	638	570	428	561	
6	0	0	0	0	660	570	428	561	
7	0	0	0	0	653	569	428	560	
8	0	0	0	0	617	569	428	557	
9	0	0	0	0	580	569	427	560	
10	0	0	0	0	531	569	428	561	
11	0	0	0	0	476	569	428	561	
12	0	0	0	0	431	569	428	565	
13	0	0	0	0	399	570	429	561	
14	0	0	0	0	377	569	428	560	
15	0	0	0	0	374	569	428	561	
0	0	0	0	0	376	569	428	556	
1	0	0	0	0	396	569	427	561	
2	0	0	0	0	429	569	428	561	
3	0	0	0	0	464	568	428	561	
4	0	0	0	0	499	568	428	565	
5	0	0	0	0	536	568	429	561	
6	0	0	0	0	564	568	428	561	
7	0	0	0	0	593	568	428	561	
8	0	0	0	0	619	567	428	557	
9	0	0	0	0	638	568	427	561	
10	0	0	0	0	655	568	427	561	
11	0	0	0	0	653	568	428	560	
12	0	0	0	0	620	567	428	564	
13	0	0	0	0	573	568	428	561	
14	0	0	0	0	514	568	427	561	
15	0	0	0	0	468	568	427	560	
0	0	0	0	0	434	568	427	557	
1	0	0	0	0	408	568	426	561	
2	0	0	0	0	379	568	427	560	
3	0	0	0	0	382	568	428	561	
4	0	0	0	0	384	568	428	565	
5	0	0	0	0	398	568	428	561	
6	0	0	0	0	427	569	427	562	
7	0	0	0	0	460	568	427	560	
8	0	0	0	0	499	569	427	556	
9	0	0	0	0	532	568	427	561	
10	0	0	0	0	561	568	427	560	
11	0	0	0	0	593	568	427	560	
12	0	0	0	0	620	568	427	564	
13	0	0	0	0	638	568	428	561	
14	0	0	0	0	659	568	427	561	
15	0	0	0	0	651	568	427	561	
0	0	0	0	0	617	568	427	557	
1	0	0	0	0	576	567	426	561	
2	0	0	0	0	528	568	427	561	
3	0	0	0	0	478	568	427	561	
4	0	0	0	0	431	568	427	564	
5	0	0	0	0	394	568	428	560	
6	0	0	0	0	375	568	427	560	
7	0	0	0	0	376	567	427	561	
8	0	0	0	0	380	567	427	556	
9	0	0	0	0	395	568	426	560	
10	0	0	0	0	428	568	427	560	
11	0	0	0	0	456	567	427	560	
12	0	0	0	0	495	568	427	564	
13	0	0	0	0	535	567	428	561	
14	0	0	0	0	561	567	427	561	
15	0	0	0	0	597	567	427	560	
0	0	0	0	0	623	568	426	556	
1	0	0	0	0	641	567	426	560	
2	0	0	0	0	658	567	427	560	
3	0	0	0	0	655	568	428	561	
4	0	0	0	0	620	567	427	564	
5	0	0	0	0	579	568	428	560	
6	0	0	0	0	528	568	427	560	
7	0	0	0	0	472	568	427	560	
8	0	0	0	0	430	568	428	556	
9	0	0	0	0	396	567	426	560	
10	0	0	0	0	373	567	427	560	
11	0	0	0	0	377	568	427	560	
12	0	0	0	0	379	567	427	564	
13	0	0	0	0	392	567	428	560	
14	0	0	0	0	427	567	428	560	
15	0	0	0	0	462	567	428	560	
0	0	0	0	0	498	567	427	557	
1	0	0	0	0	535	567	427	560	
2	0	0	0	0	560	567	428	561	
3	0	0	0	0	593	567	427	561	
4	0	0	0	0	616	567	428	564	
5	0	0	0	0	639	567	429	561	
6	0	0	0	0	659	566	428	560	
7	0	0	0	0	655	567	427	561	
8	0	0	0	0	620	566	428	557	
9	0	0	0	0	579	566	427	561	
10	0	0	0	0	529	566	428	560	
11	0	0	0	0	474	566	427	561	
12	0	0	0	0	428	566	428	565	
13	0	0	0	0	396	565	428	561	
14	0	0	0	0	376	566	428	561	
15	0	0	0	0	375	566	427	561	
0	0	0	0	0	377	566	428	557	
1	0	0	0	0	397	566	427	561	
2	0	0	0	0	430	566	427	560	
3	0	0	0	0	465	566	428	561	
4	0	0	0	0	498	566	428	565	
5	0	0	0	0	534	566	429	561	
6	0	0	0	0	563	567	428	560	
7	0	0	0	0	595	566	428	560	
8	0	0	0	0	619	566	428	557	
9	0	0	0	0	638	566	427	561	
10	0	0	0	0	657	566	427	561	
11	0	0	0	0	651	566	428	560	
12	0	0	0	0	618	566	428	565	
13	0	0	0	0	580	566	428	560	
14	0	0	0	0	529	566	428	561	
15	0	0	0	0	476	566	428	560	
0	0	0	0	0	431	565	427	557	
1	0	0	0	0	398	566	427	560	
2	0	0	0	0	377	565	428	560	
3	0	0	0	0	375	566	428	561	
4	0	0	0	0	374	566	428	564	
5	0	0	0	0	389	565	429	560	
6	0	0	0	0	425	565	428	561	
7	0	0	0	0	461	565	428	560	
8	0	0	0	0	495	564	428	556	
9	0	0	0	0	538	565	427	561	
10	0	0	0	0	568	565	428	560	
11	0	0	0	0	588	564	428	561	
12	0	0	0	0	622	565	428	564	
13	0	0	0	0	650	565	429	560	
14	0	0	0	0	661	566	428	560	
15	0	0	0	0	655	566	428	560	
0	0	0	0	0	618	566	427	556	
1	0	0	0	0	577	566	427	560	
2	0	0	0	0	530	566	427	561	
3	0	0	0	0	472	566	427	560	
4	0	0	0	0	428	566	427	561	
5	0	0	0	0	396	566	429	560	
6	0	0	0	0	373	566	428	561	
7	0	0	0	0	376	567	428	560	
8	0	0	0	0	374	566	427	556	
9	0	0	0	0	391	566	427	561	
10	0	0	0	0	432	566	427	560	
11	0	0	0	0	465	566	428	560	
12	0	0	0	0	501	566	428	564	
13	0	0	0	0	534	566	428	560	
14	0	0	0	0	564	566	427	560	
15	0	0	0	0	596	566	428	561	
0	0	0	0	0	621	566	428	557	
1	0	0	0	0	636	566	427	561	
2	0	0	0	0	656	565	427	560	
3	0	0	0	0	653	565	428	560	
4	0	0	0	0	619	565	428	564	
5	0	0	0	0	579	565	428	560	
6	0	0	0	0	529	565	428	560	
7	0	0	0	0	476	564	428	561	
8	0	0	0	0	430	565	427	556	
9	0	0	0	0	396	565	427	560	
10	0	0	0	0	373	565	428	560	
11	0	0	0	0	376	565	427	560	
12	0	0	0	0	378	565	427	564	
13	0	0	0	0	391	565	428	561	
14	0	0	0	0	424	565	428	561	
15	0	0	0	0	461	565	428	561	
0	0	0	0	0	498	565	428	557	
1	0	0	0	0	534	565	427	561	
2	0	0	0	0	559	565	428	560	
3	0	0	0	0	591	565	427	561	
4	0	0	0	0	622	565	428	564	
5	0	0	0	0	647	564	428	561	
6	0	0	0	0	663	565	427	561	
7	0	0	0	0	657	564	427	560	
8	0	0	0	0	624	565	428	557	
9	0	0	0	0	577	564	427	560	
10	0	0	0	0	520	565	428	560	
11	0	0	0	0	477	564	428	561	
12	0	0	0	0	434	565	428	564	
13	0	0	0	0	399	565	429	560	
14	0	0	0	0	380	565	428	561	
15	0	0	0	0	378	564	428	560	
0	0	0	0	0	380	565	428	556	
1	0	0	0	0	390	564	427	560	
2	0	0	0	0	423	564	428	560	
3	0	0	0	0	458	565	428	560	
4	0	0	0	0	496	564	428	564	
5	0	0	0	0	533	565	429	560	
6	0	0	0	0	564	565	428	560	
7	0	0	0	0	595	564	428	560	
8	0	0	0	0	618	565	428	556	
9	0	0	0	0	635	564	427	560	
10	0	0	0	0	659	564	428	560	
11	0	0	0	0	655	564	428	561	
12	0	0	0	0	619	565	428	564	
13	0	0	0	0	582	564	429	561	
14	0	0	0	0	530	565	428	560	
15	0	0	0	0	475	565	428	560	
0	0	0	0	0	430	565	427	557	
1	0	0	0	0	396	564	427	560	
2	0	0	0	0	375	564	428	560	
3	0	0	0	0	377	564	427	560	
4	0	0	0	0	380	565	429	564	
5	0	0	0	0	393	564	428	560	
6	0	0	0	0	425	564	428	560	
7	0	0	0	0	466	563	428	561	
8	0	0	0	0	496	564	428	557	
9	0	0	0	0	527	564	426	561	
10	0	0	0	0	567	564	427	560	
11	0	0	0	0	597	564	427	560	
12	0	0	0	0	625	564	427	564	
13	0	0	0	0	641	565	428	560	
14	0	0	0	0	654	564	427	560	
15	0	0	0	0	651	564	428	560	
0	0	0	0	0	612	565	428	556	
1	0	0	0	0	578	564	427	560	
2	0	0	0	0	536	564	427	560	
3	0	0	0	0	477	564	427	560	
4	0	0	0	0	433	565	427	564	
5	0	0	0	0	398	565	428	560	
6	0	0	0	0	377	564	427	560	
7	0	0	0	0	377	565	427	560	
8	0	0	0	0	379	564	427	556	
9	0	0	0	0	388	565	427	560	
10	0	0	0	0	424	565	428	560	
11	0	0	0	0	460	565	427	560	
12	0	0	0	0	501	565	427	564	
13	0	0	0	0	538	565	428	560	
14	0	0	0	0	560	565	428	560	
15	0	0	0	0	593	565	427	560	
0	0	0	0	0	614	565	428	556	
1	0	0	0	0	641	565	427	560	
2	0	0	0	0	662	565	428	560	
3	0	0	0	0	657	565	427	560	
4	0	0	0	0	617	565	428	564	
5	0	0	0	0	574	565	428	560	
6	0	0	0	0	523	565	428	560	
7	0	0	0	0	474	565	427	560	
8	0	0	0	0	434	565	427	557	
9	0	0	0	0	400	565	427	560	
10	0	0	0	0	380	564	428	560	
11	0	0	0	0	376	565	428	560	
12	0	0	0	0	376	565	428	564	
13	0	0	0	0	392	565	428	560	
14	0	0	0	0	424	565	427	560	
15	0	0	0	0	456	565	428	560	
0	0	0	0	0	494	565	428	556	
1	0	0	0	0	540	565	426	560	
2	0	0	0	0	568	565	427	560	
3	0	0	0	0	597	566	428	560	
4	0	0	0	0	619	566	428	563	
5	0	0	0	0	636	566	429	560	
6	0	0	0	0	657	566	428	560	
7	0	0	0	0	653	566	428	559	
8	0	0	0	0	618	566	428	556	
9	0	0	0	0	577	565	427	560	
10	0	0	0	0	527	565	428	560	
11	0	0	0	0	476	566	428	560	
12	0	0	0	0	431	566	428	564	
13	0	0	0	0	399	566	428	560	
14	0	0	0	0	378	566	428	560	
15	0	0	0	0	376	565	428	560	
0	0	0	0	0	375	565	428	556	
1	0	0	0	0	391	565	427	560	
2	0	0	0	0	426	565	428	560	
3	0	0	0	0	463	565	428	560	
4	0	0	0	0	499	565	429	564	
5	0	0	0	0	535	565	429	560	
6	0	0	0	0	567	565	428	560	
7	0	0	0	0	598	565	428	560	
8	0	0	0	0	615	566	428	556	
9	0	0	0	0	635	565	427	560	
10	0	0	0	0	659	566	428	560	
11	0	0	0	0	655	565	428	560	
12	0	0	0	0	622	565	428	564	
13	0	0	0	0	586	565	429	560	
14	0	0	0	0	531	566	428	560	
15	0	0	0	0	468	566	428	559	
0	0	0	0	0	422	566	428	556	
1	0	0	0	0	389	566	427	560	
2	0	0	0	0	371	565	427	560	
3	0	0	0	0	382	566	428	559	
4	0	0	0	0	387	566	428	564	
5	0	0	0	0	396	567	429	560	
6	0	0	0	0	424	566	428	560	
7	0	0	0	0	462	566	428	560	
8	0	0	0	0	499	566	428	556	
9	0	0	0	0	542	566	427	560	
10	0	0	0	0	570	566	428	559	
11	0	0	0	0	596	566	428	560	
12	0	0	0	0	619	566	428	563	
13	0	0	0	0	636	566	429	559	
14	0	0	0	0	655	567	428	560	
15	0	0	0	0	653	566	428	560	
0	0	0	0	0	620	566	428	556	
1	0	0	0	0	577	566	427	560	
2	0	0	0	0	526	567	428	560	
3	0	0	0	0	472	566	428	560	
4	0	0	0	0	424	566	428	564	
5	0	0	0	0	391	566	428	560	
6	0	0	0	0	382	566	428	560	
7	0	0	0	0	384	566	429	560	
8	0	0	0	0	382	566	428	556	
9	0	0	0	0	388	566	426	560	
10	0	0	0	0	427	566	428	561	
11	0	0	0	0	463	566	428	560	
12	0	0	0	0	498	566	428	563	
13	0	0	0	0	534	567	428	561	
14	0	0	0	0	566	566	428	560	
15	0	0	0	0	595	567	428	560	
0	0	0	0	0	621	566	427	556	
1	0	0	0	0	638	567	427	560	
2	0	0	0	0	655	567	428	560	
3	0	0	0	0	651	567	428	560	
4	0	0	0	0	616	567	428	564	
5	0	0	0	0	579	568	428	560	
6	0	0	0	0	532	568	428	560	
7	0	0	0	0	472	567	428	560	
8	0	0	0	0	423	567	427	556	
9	0	0	0	0	396	567	427	560	
10	0	0	0	0	381	566	428	560	
11	0	0	0	0	384	567	428	560	
12	0	0	0	0	382	567	428	563	
13	0	0	0	0	393	567	428	560	
14	0	0	0	0	426	567	427	560	
15	0	0	0	0	461	567	428	560	
0	0	0	0	0	498	567	428	556	
1	0	0	0	0	532	567	427	560	
2	0	0	0	0	565	568	428	560	
3	0	0	0	0	596	567	427	560	
4	0	0	0	0	621	568	428	564	
5	0	0	0	0	637	568	428	560	
6	0	0	0	0	655	567	428	560	
7	0	0	0	0	651	567	428	560	
8	0	0	0	0	615	567	427	556	
9	0	0	0	0	576	567	427	560	
10	0	0	0	0	533	567	428	561	
11	0	0	0	0	475	568	428	560	
12	0	0	0	0	428	568	428	564	
13	0	0	0	0	394	567	429	560	
14	0	0	0	0	380	568	427	560	
15	0	0	0	0	382	567	428	560	
0	0	0	0	0	381	568	427	556	
1	0	0	0	0	392	568	427	560	
2	0	0	0	0	419	567	427	560	
3	0	0	0	0	455	568	427	560	
4	0	0	0	0	499	568	428	564	
5	0	0	0	0	536	568	428	560	
6	0	0	0	0	562	567	427	560	
7	0	0	0	0	598	567	428	560	
8	0	0	0	0	625	567	427	556	
9	0	0	0	0	639	568	427	559	
10	0	0	0	0	661	567	427	560	
11	0	0	0	0	656	568	427	560	
12	0	0	0	0	620	567	428	564	
13	0	0	0	0	576	567	428	560	
14	0	0	0	0	522	567	427	560	
15	0	0	0	0	472	567	428	560	
0	0	0	0	0	432	567	428	556	
1	0	0	0	0	403	567	426	560	
2	0	0	0	0	379	568	427	561	
3	0	0	0	0	378	567	427	560	
4	0	0	0	0	377	568	428	564	
5	0	0	0	0	393	567	428	560	
6	0	0	0	0	424	568	428	560	
7	0	0	0	0	454	568	428	560	
8	0	0	0	0	495	567	427	556	
9	0	0	0	0	536	567	427	560	
10	0	0	0	0	571	567	427	560	
11	0	0	0	0	596	568	428	560	
12	0	0	0	0	618	567	428	564	
13	0	0	0	0	634	568	428	560	
14	0	0	0	0	658	568	428	560	
15	0	0	0	0	655	568	428	560	
0	0	0	0	0	620	567	427	556	
1	0	0	0	0	582	568	427	560	
2	0	0	0	0	527	568	428	559	
3	0	0	0	0	476	568	428	560	
4	0	0	0	0	428	568	427	564	
5	0	0	0	0	396	568	428	560	
6	0	0	0	0	374	568	427	560	
7	0	0	0	0	374	567	428	560	
8	0	0	0	0	377	568	427	556	
9	0	0	0	0	397	568	427	560	
10	0	0	0	0	431	568	427	560	
11	0	0	0	0	459	568	426	560	
12	0	0	0	0	495	568	428	563	
13	0	0	0	0	532	568	428	560	
14	0	0	0	0	564	568	428	560	
15	0	0	0	0	601	568	428	560	
0	0	0	0	0	622	568	427	556	
1	0	0	0	0	641	568	427	560	
2	0	0	0	0	657	568	428	560	
3	0	0	0	0	653	568	428	560	
4	0	0	0	0	619	568	427	564	
5	0	0	0	0	581	568	428	560	
6	0	0	0	0	527	568	428	560	
7	0	0	0	0	473	568	427	559	
8	0	0	0	0	426	568	427	556	
9	0	0	0	0	397	567	427	560	
10	0	0	0	0	381	568	428	560	
11	0	0	0	0	380	568	427	560	
12	0	0	0	0	380	568	427	564	
13	0	0	0	0	391	568	428	560	
14	0	0	0	0	420	568	427	561	
15	0	0	0	0	459	568	427	560	
0	0	0	0	0	494	568	427	556	
1	0	0	0	0	535	567	426	560	
2	0	0	0	0	569	568	427	559	
3	0	0	0	0	597	568	427	560	
4	0	0	0	0	621	568	427	564	
5	0	0	0	0	642	568	428	561	
6	0	0	0	0	659	568	428	560	
7	0	0	0	0	653	568	427	560	
8	0	0	0	0	618	568	427	556	
9	0	0	0	0	579	568	426	559	
10	0	0	0	0	527	567	427	560	
11	0	0	0	0	472	568	428	560	
12	0	0	0	0	428	568	427	564	
13	0	0	0	0	396	568	428	561	
14	0	0	0	0	371	568	427	560	
15	0	0	0	0	372	568	428	560	
0	0	0	0	0	370	567	427	556	
1	0	0	0	0	401	568	427	560	
2	0	0	0	0	439	567	428	560	
3	0	0	0	0	469	568	428	560	
4	0	0	0	0	496	568	428	564	
5	0	0	0	0	534	568	429	560	
6	0	0	0	0	564	568	428	560	
7	0	0	0	0	597	568	428	560	
8	0	0	0	0	621	568	427	556	
9	0	0	0	0	640	568	427	560	
10	0	0	0	0	656	568	428	560	
11	0	0	0	0	651	568	428	561	
12	0	0	0	0	619	568	428	564	
13	0	0	0	0	579	568	428	560	
14	0	0	0	0	525	568	428	560	
15	0	0	0	0	475	568	428	560	
0	0	0	0	0	431	568	428	556	
1	0	0	0	0	396	568	426	560	
2	0	0	0	0	376	568	427	560	
3	0	0	0	0	376	568	428	560	
4	0	0	0	0	381	568	428	563	
5	0	0	0	0	387	568	428	560	
6	0	0	0	0	418	568	428	560	
7	0	0	0	0	454	567	428	560	
8	0	0	0	0	502	568	428	556	
9	0	0	0	0	542	568	427	560	
10	0	0	0	0	568	568	427	560	
11	0	0	0	0	596	568	428	560	
12	0	0	0	0	619	568	428	564	
13	0	0	0	0	638	568	428	560	
14	0	0	0	0	654	567	428	560	
15	0	0	0	0	651	568	428	560	
0	0	0	0	0	624	568	428	556	
1	0	0	0	0	583	567	427	561	
2	0	0	0	0	527	568	428	560	
3	0	0	0	0	471	568	428	561	
4	0	0	0	0	431	568	428	564	
5	0	0	0	0	396	568	428	560	
6	0	0	0	0	376	567	428	561	
7	0	0	0	0	377	567	428	560	
