# OpenSignals Text File Format
# {"20:16:12:22:51:27": {"sensor": ["RAW", "RAW", "RAW", "RAW"], "device name": "20:16:12:22:51:27", "column": ["nSeq", "I1", "I2", "O1", "O2", "A1", "A3", "A4", "A5"], "sync interval": 2, "time": "1:39:7.764", "comments": "", "device connection": "BTH20:16:12:22:51:27", "channels": [1, 3, 4, 5], "keywords": "", "mode": "bitalino_rev", "digital IO": [0, 0, 1, 1], "firmware version": 1281, "device": "bitalino_rev", "position": 0, "sampling rate": "bitalino_rev", "label": ["A1", "A3", "A4", "A5"], "resolution": [4, 1, 1, 1, 1, 10, 10, 10, 10], "date": "2017-9-3", "special": [{}, {}, {}, {}]}}
# EndOfHeader
0	0	0	0	0	520	604	563	488	
1	0	0	0	0	472	604	563	488	
2	0	0	0	0	425	604	564	488	
3	0	0	0	0	406	604	563	487	
4	0	0	0	0	408	604	563	488	
5	0	0	0	0	411	604	564	487	
6	0	0	0	0	411	604	564	487	
7	0	0	0	0	398	604	564	487	
8	0	0	0	0	385	604	564	487	
9	0	0	0	0	426	604	564	487	
10	0	0	0	0	493	604	564	487	
11	0	0	0	0	536	604	564	487	
12	0	0	0	0	584	604	564	487	
13	0	0	0	0	602	604	563	487	
14	0	0	0	0	600	604	563	487	
15	0	0	0	0	600	604	563	487	
0	0	0	0	0	612	604	563	487	
1	0	0	0	0	648	604	564	487	
2	0	0	0	0	662	604	563	487	
3	0	0	0	0	597	604	563	487	
4	0	0	0	0	523	604	564	487	
5	0	0	0	0	474	603	563	487	
6	0	0	0	0	440	604	564	487	
7	0	0	0	0	417	604	563	487	
8	0	0	0	0	398	604	563	487	
9	0	0	0	0	393	604	564	487	
10	0	0	0	0	410	604	563	487	
11	0	0	0	0	401	604	564	487	
12	0	0	0	0	389	604	563	487	
13	0	0	0	0	424	603	563	487	
14	0	0	0	0	488	604	564	487	
15	0	0	0	0	542	604	563	487	
0	0	0	0	0	580	604	563	487	
1	0	0	0	0	597	604	564	487	
2	0	0	0	0	603	604	563	487	
3	0	0	0	0	607	604	563	487	
4	0	0	0	0	598	604	564	487	
5	0	0	0	0	632	604	563	487	
6	0	0	0	0	655	604	563	487	
7	0	0	0	0	621	604	564	487	
8	0	0	0	0	540	604	563	487	
9	0	0	0	0	474	604	563	487	
10	0	0	0	0	425	604	563	487	
11	0	0	0	0	395	604	564	487	
12	0	0	0	0	411	604	563	487	
13	0	0	0	0	405	604	563	487	
14	0	0	0	0	415	604	563	487	
15	0	0	0	0	414	604	564	487	
0	0	0	0	0	397	604	564	486	
1	0	0	0	0	422	603	563	487	
2	0	0	0	0	486	603	564	488	
3	0	0	0	0	536	604	564	487	
4	0	0	0	0	575	604	563	487	
5	0	0	0	0	597	603	564	488	
6	0	0	0	0	608	603	563	487	
7	0	0	0	0	604	603	564	487	
8	0	0	0	0	601	604	563	487	
9	0	0	0	0	639	604	564	487	
10	0	0	0	0	655	604	564	487	
11	0	0	0	0	600	603	563	487	
12	0	0	0	0	532	604	563	487	
13	0	0	0	0	479	603	563	487	
14	0	0	0	0	433	603	563	487	
15	0	0	0	0	412	604	564	487	
0	0	0	0	0	402	603	563	487	
1	0	0	0	0	405	604	563	486	
2	0	0	0	0	414	603	563	487	
3	0	0	0	0	401	604	563	487	
4	0	0	0	0	385	604	564	487	
5	0	0	0	0	420	603	564	487	
6	0	0	0	0	489	603	563	487	
7	0	0	0	0	536	603	563	487	
8	0	0	0	0	574	603	563	487	
9	0	0	0	0	591	603	563	487	
10	0	0	0	0	601	604	563	487	
11	0	0	0	0	602	603	564	487	
12	0	0	0	0	605	603	563	487	
13	0	0	0	0	648	603	564	487	
14	0	0	0	0	659	604	564	486	
15	0	0	0	0	596	604	563	486	
0	0	0	0	0	523	603	564	487	
1	0	0	0	0	471	603	564	487	
2	0	0	0	0	430	603	563	487	
3	0	0	0	0	413	603	563	487	
4	0	0	0	0	406	603	563	486	
5	0	0	0	0	394	603	563	487	
6	0	0	0	0	439	604	563	487	
7	0	0	0	0	427	604	563	487	
8	0	0	0	0	389	603	563	487	
9	0	0	0	0	416	604	564	487	
10	0	0	0	0	486	604	563	487	
11	0	0	0	0	543	604	563	487	
12	0	0	0	0	575	603	562	487	
13	0	0	0	0	591	604	563	487	
14	0	0	0	0	603	603	563	487	
15	0	0	0	0	619	604	563	487	
0	0	0	0	0	611	603	563	487	
1	0	0	0	0	643	604	564	487	
2	0	0	0	0	656	603	563	487	
3	0	0	0	0	588	603	563	487	
4	0	0	0	0	517	604	563	487	
5	0	0	0	0	471	603	563	486	
6	0	0	0	0	430	603	564	486	
7	0	0	0	0	422	604	563	486	
8	0	0	0	0	408	603	563	487	
9	0	0	0	0	403	603	563	487	
10	0	0	0	0	418	603	563	487	
11	0	0	0	0	404	603	563	487	
12	0	0	0	0	385	603	563	487	
13	0	0	0	0	421	603	563	487	
14	0	0	0	0	487	603	564	487	
15	0	0	0	0	538	603	564	487	
0	0	0	0	0	578	604	563	487	
1	0	0	0	0	599	603	563	487	
2	0	0	0	0	606	603	563	487	
3	0	0	0	0	605	604	564	487	
4	0	0	0	0	597	603	564	487	
5	0	0	0	0	634	603	563	486	
6	0	0	0	0	660	603	563	487	
7	0	0	0	0	601	603	563	487	
8	0	0	0	0	531	604	563	487	
9	0	0	0	0	484	603	563	487	
10	0	0	0	0	434	604	564	487	
11	0	0	0	0	408	603	564	487	
12	0	0	0	0	405	603	563	487	
13	0	0	0	0	410	604	563	487	
14	0	0	0	0	419	603	564	487	
15	0	0	0	0	408	603	563	487	
0	0	0	0	0	388	604	564	487	
1	0	0	0	0	415	604	563	487	
2	0	0	0	0	487	604	564	487	
3	0	0	0	0	534	603	564	487	
4	0	0	0	0	570	604	563	487	
5	0	0	0	0	589	604	563	487	
6	0	0	0	0	614	603	563	487	
7	0	0	0	0	615	603	564	487	
8	0	0	0	0	601	603	563	487	
9	0	0	0	0	652	604	563	487	
10	0	0	0	0	668	604	563	487	
11	0	0	0	0	602	603	563	487	
12	0	0	0	0	527	603	563	487	
13	0	0	0	0	473	604	563	487	
14	0	0	0	0	432	604	563	487	
15	0	0	0	0	404	604	564	487	
0	0	0	0	0	396	604	563	487	
1	0	0	0	0	400	604	564	487	
2	0	0	0	0	409	603	564	487	
3	0	0	0	0	396	604	564	487	
4	0	0	0	0	384	604	564	487	
5	0	0	0	0	423	604	564	487	
6	0	0	0	0	495	604	563	487	
7	0	0	0	0	534	604	564	487	
8	0	0	0	0	568	604	563	487	
9	0	0	0	0	605	604	563	487	
10	0	0	0	0	620	604	562	486	
11	0	0	0	0	612	604	563	487	
12	0	0	0	0	601	604	564	487	
13	0	0	0	0	637	604	563	487	
14	0	0	0	0	664	604	563	487	
15	0	0	0	0	605	604	563	487	
0	0	0	0	0	532	604	563	487	
1	0	0	0	0	477	604	563	487	
2	0	0	0	0	427	604	563	487	
3	0	0	0	0	405	604	564	487	
4	0	0	0	0	399	604	563	487	
5	0	0	0	0	401	604	563	487	
6	0	0	0	0	411	604	563	487	
7	0	0	0	0	391	604	564	487	
8	0	0	0	0	389	604	563	487	
9	0	0	0	0	416	604	563	487	
10	0	0	0	0	489	604	564	487	
11	0	0	0	0	557	604	564	487	
12	0	0	0	0	588	604	563	487	
13	0	0	0	0	608	604	563	487	
14	0	0	0	0	603	603	563	487	
15	0	0	0	0	601	604	564	487	
0	0	0	0	0	600	604	563	487	
1	0	0	0	0	636	604	563	487	
2	0	0	0	0	672	604	563	487	
3	0	0	0	0	606	604	563	487	
4	0	0	0	0	524	604	564	487	
5	0	0	0	0	472	604	563	487	
6	0	0	0	0	432	604	563	487	
7	0	0	0	0	409	604	564	487	
8	0	0	0	0	394	604	563	487	
9	0	0	0	0	393	604	563	487	
10	0	0	0	0	409	603	563	487	
11	0	0	0	0	397	604	563	487	
12	0	0	0	0	387	604	564	488	
13	0	0	0	0	423	603	563	487	
14	0	0	0	0	497	603	564	487	
15	0	0	0	0	547	603	563	488	
0	0	0	0	0	582	604	563	488	
1	0	0	0	0	595	604	564	488	
2	0	0	0	0	598	604	563	487	
3	0	0	0	0	601	604	563	487	
4	0	0	0	0	603	604	563	487	
5	0	0	0	0	641	604	563	487	
6	0	0	0	0	671	604	563	487	
7	0	0	0	0	606	603	563	487	
8	0	0	0	0	528	604	564	487	
9	0	0	0	0	483	604	563	487	
10	0	0	0	0	436	604	563	487	
11	0	0	0	0	412	604	563	487	
12	0	0	0	0	399	603	563	487	
13	0	0	0	0	405	603	563	487	
14	0	0	0	0	420	603	563	487	
15	0	0	0	0	401	604	563	487	
0	0	0	0	0	383	604	564	487	
1	0	0	0	0	416	603	563	487	
2	0	0	0	0	489	604	563	487	
3	0	0	0	0	539	603	563	487	
4	0	0	0	0	579	604	563	487	
5	0	0	0	0	598	604	563	487	
6	0	0	0	0	604	604	563	487	
7	0	0	0	0	603	604	563	487	
8	0	0	0	0	608	604	563	487	
9	0	0	0	0	646	604	563	487	
10	0	0	0	0	660	604	563	487	
11	0	0	0	0	600	604	563	487	
12	0	0	0	0	526	604	564	487	
13	0	0	0	0	475	604	563	487	
14	0	0	0	0	433	604	564	487	
15	0	0	0	0	414	604	563	487	
0	0	0	0	0	401	604	563	487	
1	0	0	0	0	400	604	563	487	
2	0	0	0	0	409	604	564	487	
3	0	0	0	0	396	604	564	487	
4	0	0	0	0	382	604	563	487	
5	0	0	0	0	413	603	563	487	
6	0	0	0	0	484	604	563	487	
7	0	0	0	0	553	604	564	487	
8	0	0	0	0	591	604	564	487	
9	0	0	0	0	602	604	563	487	
10	0	0	0	0	608	603	563	487	
11	0	0	0	0	608	603	563	487	
12	0	0	0	0	601	603	564	487	
13	0	0	0	0	644	603	563	487	
14	0	0	0	0	663	603	564	487	
15	0	0	0	0	599	603	563	487	
0	0	0	0	0	523	604	564	487	
1	0	0	0	0	469	603	563	487	
2	0	0	0	0	433	603	564	487	
3	0	0	0	0	411	603	563	487	
4	0	0	0	0	397	603	563	487	
5	0	0	0	0	412	604	563	487	
6	0	0	0	0	427	603	564	487	
7	0	0	0	0	411	604	564	487	
8	0	0	0	0	389	604	564	487	
9	0	0	0	0	414	603	564	487	
10	0	0	0	0	481	604	563	487	
11	0	0	0	0	534	603	564	487	
12	0	0	0	0	574	603	563	487	
13	0	0	0	0	595	604	564	487	
14	0	0	0	0	609	603	563	487	
15	0	0	0	0	617	603	563	488	
0	0	0	0	0	608	603	563	487	
1	0	0	0	0	639	604	564	487	
2	0	0	0	0	652	604	563	487	
3	0	0	0	0	588	604	563	487	
4	0	0	0	0	514	604	563	487	
5	0	0	0	0	470	604	563	487	
6	0	0	0	0	429	604	563	487	
7	0	0	0	0	426	603	564	487	
8	0	0	0	0	430	604	563	486	
9	0	0	0	0	408	605	563	487	
10	0	0	0	0	410	604	563	487	
11	0	0	0	0	400	604	563	487	
12	0	0	0	0	385	604	563	487	
13	0	0	0	0	416	604	562	487	
14	0	0	0	0	487	604	563	487	
15	0	0	0	0	536	603	563	487	
0	0	0	0	0	577	604	564	487	
1	0	0	0	0	592	604	563	487	
2	0	0	0	0	603	604	564	487	
3	0	0	0	0	617	604	563	487	
4	0	0	0	0	609	604	563	487	
5	0	0	0	0	640	604	563	487	
6	0	0	0	0	656	604	563	487	
7	0	0	0	0	595	603	563	487	
8	0	0	0	0	522	604	563	487	
9	0	0	0	0	474	603	563	487	
10	0	0	0	0	433	603	564	487	
11	0	0	0	0	409	603	563	487	
12	0	0	0	0	398	603	564	487	
13	0	0	0	0	399	603	564	487	
14	0	0	0	0	413	603	563	487	
15	0	0	0	0	404	603	563	487	
0	0	0	0	0	400	603	563	487	
1	0	0	0	0	426	603	563	487	
2	0	0	0	0	499	604	564	487	
3	0	0	0	0	551	604	563	487	
4	0	0	0	0	581	603	563	487	
5	0	0	0	0	597	603	563	487	
6	0	0	0	0	599	603	563	487	
7	0	0	0	0	603	603	564	487	
8	0	0	0	0	597	603	563	487	
9	0	0	0	0	632	603	563	487	
10	0	0	0	0	649	603	563	487	
11	0	0	0	0	588	604	563	487	
12	0	0	0	0	531	603	563	487	
13	0	0	0	0	495	603	563	487	
14	0	0	0	0	440	603	563	487	
15	0	0	0	0	415	603	563	487	
0	0	0	0	0	410	603	563	487	
1	0	0	0	0	408	603	564	487	
2	0	0	0	0	420	603	563	487	
3	0	0	0	0	404	604	563	487	
4	0	0	0	0	386	604	564	487	
5	0	0	0	0	418	604	563	487	
6	0	0	0	0	484	603	563	487	
7	0	0	0	0	533	604	563	487	
8	0	0	0	0	577	604	563	487	
9	0	0	0	0	594	604	563	487	
10	0	0	0	0	601	604	563	487	
11	0	0	0	0	610	604	564	487	
12	0	0	0	0	607	603	563	487	
13	0	0	0	0	643	603	563	487	
14	0	0	0	0	664	604	564	487	
15	0	0	0	0	596	604	563	486	
0	0	0	0	0	524	604	563	487	
1	0	0	0	0	473	603	563	486	
2	0	0	0	0	433	604	564	487	
3	0	0	0	0	407	604	563	487	
4	0	0	0	0	418	604	563	486	
5	0	0	0	0	411	603	563	487	
6	0	0	0	0	414	604	564	487	
7	0	0	0	0	401	603	563	487	
8	0	0	0	0	386	605	564	487	
9	0	0	0	0	418	603	563	487	
10	0	0	0	0	486	604	564	486	
11	0	0	0	0	537	603	563	487	
12	0	0	0	0	572	604	563	487	
13	0	0	0	0	596	604	564	487	
14	0	0	0	0	615	604	563	487	
15	0	0	0	0	608	604	564	487	
0	0	0	0	0	597	604	563	487	
1	0	0	0	0	630	604	563	487	
2	0	0	0	0	675	604	563	487	
3	0	0	0	0	609	604	563	487	
4	0	0	0	0	526	604	563	487	
5	0	0	0	0	492	604	563	487	
6	0	0	0	0	443	604	563	487	
7	0	0	0	0	406	604	564	487	
8	0	0	0	0	395	604	563	487	
9	0	0	0	0	391	604	563	488	
10	0	0	0	0	408	604	563	487	
11	0	0	0	0	403	604	563	487	
12	0	0	0	0	391	604	563	487	
13	0	0	0	0	420	604	563	487	
14	0	0	0	0	488	604	564	487	
15	0	0	0	0	535	603	563	487	
0	0	0	0	0	575	604	563	487	
1	0	0	0	0	596	604	563	487	
2	0	0	0	0	598	603	563	487	
3	0	0	0	0	610	604	564	487	
4	0	0	0	0	607	604	563	487	
5	0	0	0	0	647	603	563	487	
6	0	0	0	0	660	604	563	486	
7	0	0	0	0	595	604	563	487	
8	0	0	0	0	517	604	564	487	
9	0	0	0	0	470	604	563	487	
10	0	0	0	0	437	604	563	487	
11	0	0	0	0	410	604	563	487	
12	0	0	0	0	416	604	563	487	
13	0	0	0	0	412	604	563	487	
14	0	0	0	0	423	604	563	487	
15	0	0	0	0	402	604	563	487	
0	0	0	0	0	383	604	563	487	
1	0	0	0	0	422	604	563	487	
2	0	0	0	0	492	604	563	487	
3	0	0	0	0	536	603	564	487	
4	0	0	0	0	577	604	563	487	
5	0	0	0	0	599	604	563	487	
6	0	0	0	0	604	604	563	487	
7	0	0	0	0	603	603	563	487	
8	0	0	0	0	604	603	563	487	
9	0	0	0	0	649	603	563	487	
10	0	0	0	0	668	603	563	487	
11	0	0	0	0	600	603	563	487	
12	0	0	0	0	518	604	563	487	
13	0	0	0	0	472	604	564	487	
14	0	0	0	0	430	604	563	487	
15	0	0	0	0	407	603	563	487	
0	0	0	0	0	405	603	563	487	
1	0	0	0	0	405	603	564	487	
2	0	0	0	0	411	603	563	486	
3	0	0	0	0	397	603	563	487	
4	0	0	0	0	380	603	564	487	
5	0	0	0	0	411	603	563	487	
6	0	0	0	0	503	603	563	487	
7	0	0	0	0	549	603	563	486	
8	0	0	0	0	588	604	563	487	
9	0	0	0	0	605	603	563	487	
10	0	0	0	0	605	603	563	487	
11	0	0	0	0	604	603	564	486	
12	0	0	0	0	599	603	563	487	
13	0	0	0	0	636	604	564	487	
14	0	0	0	0	654	604	564	486	
15	0	0	0	0	591	604	563	487	
0	0	0	0	0	519	604	563	487	
1	0	0	0	0	481	604	564	487	
2	0	0	0	0	448	603	563	487	
3	0	0	0	0	417	603	564	486	
4	0	0	0	0	407	603	563	487	
5	0	0	0	0	408	604	563	487	
6	0	0	0	0	409	603	563	487	
7	0	0	0	0	395	603	564	487	
8	0	0	0	0	385	603	563	487	
9	0	0	0	0	417	603	562	486	
10	0	0	0	0	484	604	563	487	
11	0	0	0	0	555	603	563	486	
12	0	0	0	0	592	603	562	487	
13	0	0	0	0	598	604	563	487	
14	0	0	0	0	599	603	563	487	
15	0	0	0	0	602	603	564	487	
0	0	0	0	0	597	604	563	487	
1	0	0	0	0	635	603	563	487	
2	0	0	0	0	657	604	564	487	
3	0	0	0	0	604	604	563	487	
4	0	0	0	0	532	603	563	487	
5	0	0	0	0	473	604	563	487	
6	0	0	0	0	426	604	564	487	
7	0	0	0	0	409	603	563	487	
8	0	0	0	0	400	604	563	486	
9	0	0	0	0	403	604	564	487	
10	0	0	0	0	432	604	563	487	
11	0	0	0	0	410	604	564	487	
12	0	0	0	0	390	604	563	487	
13	0	0	0	0	416	604	563	487	
14	0	0	0	0	487	604	565	487	
15	0	0	0	0	543	604	563	487	
0	0	0	0	0	581	604	563	487	
1	0	0	0	0	599	604	563	487	
2	0	0	0	0	604	604	563	487	
3	0	0	0	0	604	604	564	487	
4	0	0	0	0	597	604	564	487	
5	0	0	0	0	635	604	563	487	
6	0	0	0	0	654	604	563	487	
7	0	0	0	0	597	604	563	487	
8	0	0	0	0	523	604	564	487	
9	0	0	0	0	472	604	563	487	
10	0	0	0	0	450	604	563	487	
11	0	0	0	0	415	604	564	487	
12	0	0	0	0	403	604	563	487	
13	0	0	0	0	394	604	563	487	
14	0	0	0	0	410	604	563	487	
15	0	0	0	0	406	604	564	487	
0	0	0	0	0	380	604	564	487	
1	0	0	0	0	413	604	563	487	
2	0	0	0	0	478	604	563	487	
3	0	0	0	0	541	604	563	487	
4	0	0	0	0	591	604	563	487	
5	0	0	0	0	607	604	563	487	
6	0	0	0	0	608	604	563	487	
7	0	0	0	0	605	605	563	487	
8	0	0	0	0	611	604	564	487	
9	0	0	0	0	646	603	563	487	
10	0	0	0	0	656	604	564	487	
11	0	0	0	0	598	604	563	487	
12	0	0	0	0	528	604	563	487	
13	0	0	0	0	471	603	564	487	
14	0	0	0	0	425	603	563	487	
15	0	0	0	0	407	604	563	487	
0	0	0	0	0	406	603	563	487	
1	0	0	0	0	392	604	563	487	
2	0	0	0	0	414	604	563	487	
3	0	0	0	0	416	603	563	487	
4	0	0	0	0	391	603	563	487	
5	0	0	0	0	423	603	563	487	
6	0	0	0	0	504	603	563	487	
7	0	0	0	0	547	604	563	487	
8	0	0	0	0	578	604	564	487	
9	0	0	0	0	597	603	563	487	
10	0	0	0	0	600	603	563	487	
11	0	0	0	0	606	604	563	487	
12	0	0	0	0	607	603	563	487	
13	0	0	0	0	646	603	563	487	
14	0	0	0	0	659	603	563	487	
15	0	0	0	0	593	603	563	487	
0	0	0	0	0	519	604	563	488	
1	0	0	0	0	473	604	563	487	
2	0	0	0	0	435	603	563	487	
3	0	0	0	0	411	603	563	488	
4	0	0	0	0	404	604	564	487	
5	0	0	0	0	407	603	564	487	
6	0	0	0	0	414	603	564	487	
7	0	0	0	0	397	603	563	487	
8	0	0	0	0	378	604	563	487	
9	0	0	0	0	419	603	563	487	
10	0	0	0	0	491	603	563	487	
11	0	0	0	0	539	603	563	487	
12	0	0	0	0	584	604	563	487	
13	0	0	0	0	604	604	563	488	
14	0	0	0	0	611	604	563	487	
15	0	0	0	0	609	604	563	487	
0	0	0	0	0	603	604	563	487	
1	0	0	0	0	647	603	563	487	
2	0	0	0	0	662	604	563	488	
3	0	0	0	0	602	603	564	488	
4	0	0	0	0	528	604	563	487	
5	0	0	0	0	473	603	563	487	
6	0	0	0	0	424	604	564	487	
7	0	0	0	0	400	604	563	487	
8	0	0	0	0	396	604	564	487	
9	0	0	0	0	397	604	563	487	
10	0	0	0	0	419	604	563	487	
11	0	0	0	0	416	604	563	487	
12	0	0	0	0	391	604	563	487	
13	0	0	0	0	419	604	563	487	
14	0	0	0	0	493	604	563	487	
15	0	0	0	0	542	604	563	487	
0	0	0	0	0	580	604	563	487	
1	0	0	0	0	610	605	563	487	
2	0	0	0	0	610	604	563	487	
3	0	0	0	0	605	604	563	487	
4	0	0	0	0	599	604	563	487	
5	0	0	0	0	642	605	564	487	
6	0	0	0	0	665	604	564	488	
7	0	0	0	0	599	604	563	487	
8	0	0	0	0	521	604	563	487	
9	0	0	0	0	471	604	563	487	
10	0	0	0	0	428	604	564	488	
11	0	0	0	0	409	604	564	487	
12	0	0	0	0	399	604	564	487	
13	0	0	0	0	403	604	564	488	
14	0	0	0	0	414	604	563	487	
15	0	0	0	0	400	604	563	488	
0	0	0	0	0	382	605	564	487	
1	0	0	0	0	415	604	563	487	
2	0	0	0	0	491	605	563	487	
3	0	0	0	0	561	604	563	487	
4	0	0	0	0	587	604	563	487	
5	0	0	0	0	600	604	564	487	
6	0	0	0	0	599	604	564	487	
7	0	0	0	0	602	604	563	487	
8	0	0	0	0	605	604	563	487	
9	0	0	0	0	634	604	563	487	
10	0	0	0	0	652	604	564	487	
11	0	0	0	0	585	604	563	487	
12	0	0	0	0	530	604	564	487	
13	0	0	0	0	480	604	563	487	
14	0	0	0	0	431	604	564	487	
15	0	0	0	0	398	604	564	487	
0	0	0	0	0	402	604	564	487	
1	0	0	0	0	431	604	563	487	
2	0	0	0	0	429	604	563	487	
3	0	0	0	0	415	604	563	487	
4	0	0	0	0	393	604	564	487	
5	0	0	0	0	421	604	564	487	
6	0	0	0	0	489	603	564	487	
7	0	0	0	0	536	604	564	487	
8	0	0	0	0	571	604	563	487	
9	0	0	0	0	588	603	564	487	
10	0	0	0	0	594	604	563	487	
11	0	0	0	0	606	603	564	487	
12	0	0	0	0	608	603	563	487	
13	0	0	0	0	644	603	563	487	
14	0	0	0	0	671	604	564	487	
15	0	0	0	0	602	603	564	487	
0	0	0	0	0	528	604	564	487	
1	0	0	0	0	475	604	564	487	
2	0	0	0	0	428	603	563	487	
3	0	0	0	0	402	603	564	487	
4	0	0	0	0	399	603	563	487	
5	0	0	0	0	402	604	563	487	
6	0	0	0	0	413	603	563	486	
7	0	0	0	0	408	602	563	487	
8	0	0	0	0	390	603	563	487	
9	0	0	0	0	420	603	563	486	
10	0	0	0	0	486	603	563	487	
11	0	0	0	0	533	603	563	486	
12	0	0	0	0	574	603	563	486	
13	0	0	0	0	602	603	563	486	
14	0	0	0	0	605	602	563	486	
15	0	0	0	0	609	603	564	487	
0	0	0	0	0	599	603	563	487	
1	0	0	0	0	657	603	564	486	
2	0	0	0	0	675	603	563	486	
3	0	0	0	0	603	602	563	487	
4	0	0	0	0	524	603	563	486	
5	0	0	0	0	477	603	563	486	
6	0	0	0	0	436	602	563	486	
7	0	0	0	0	408	603	564	486	
8	0	0	0	0	399	603	564	486	
9	0	0	0	0	399	603	563	486	
10	0	0	0	0	414	602	563	486	
11	0	0	0	0	403	603	563	486	
12	0	0	0	0	390	603	563	486	
13	0	0	0	0	425	602	563	486	
14	0	0	0	0	491	603	564	486	
15	0	0	0	0	538	603	563	486	
0	0	0	0	0	575	603	563	486	
1	0	0	0	0	592	602	563	486	
2	0	0	0	0	601	603	564	486	
3	0	0	0	0	605	603	564	487	
4	0	0	0	0	601	602	564	486	
5	0	0	0	0	637	602	563	486	
6	0	0	0	0	670	602	563	487	
7	0	0	0	0	606	603	564	487	
8	0	0	0	0	526	603	564	486	
9	0	0	0	0	476	603	564	487	
10	0	0	0	0	433	602	563	486	
11	0	0	0	0	408	603	563	487	
12	0	0	0	0	399	603	564	486	
13	0	0	0	0	400	603	563	486	
14	0	0	0	0	410	603	563	487	
15	0	0	0	0	401	603	563	486	
0	0	0	0	0	396	603	563	486	
1	0	0	0	0	421	603	563	486	
2	0	0	0	0	488	603	563	486	
3	0	0	0	0	539	604	563	487	
4	0	0	0	0	582	603	563	486	
5	0	0	0	0	601	604	563	486	
6	0	0	0	0	603	604	563	486	
7	0	0	0	0	604	604	563	487	
8	0	0	0	0	602	603	563	487	
9	0	0	0	0	637	604	563	486	
10	0	0	0	0	654	604	563	486	
11	0	0	0	0	597	604	563	487	
12	0	0	0	0	532	604	563	486	
13	0	0	0	0	481	604	563	486	
14	0	0	0	0	432	604	563	487	
15	0	0	0	0	400	604	564	487	
0	0	0	0	0	407	603	563	487	
1	0	0	0	0	414	604	563	487	
2	0	0	0	0	417	604	563	486	
3	0	0	0	0	390	604	563	487	
4	0	0	0	0	406	604	563	487	
5	0	0	0	0	448	605	564	486	
6	0	0	0	0	491	604	563	487	
7	0	0	0	0	533	604	563	487	
8	0	0	0	0	573	605	563	487	
9	0	0	0	0	598	604	563	487	
10	0	0	0	0	601	604	563	487	
11	0	0	0	0	604	604	563	487	
12	0	0	0	0	596	604	563	487	
13	0	0	0	0	641	604	563	487	
14	0	0	0	0	658	604	563	487	
15	0	0	0	0	593	604	564	487	
0	0	0	0	0	523	604	563	487	
1	0	0	0	0	471	604	563	487	
2	0	0	0	0	436	604	563	487	
3	0	0	0	0	411	605	563	487	
4	0	0	0	0	403	605	563	487	
5	0	0	0	0	403	605	563	487	
6	0	0	0	0	411	605	563	487	
7	0	0	0	0	388	605	563	487	
8	0	0	0	0	384	604	563	487	
9	0	0	0	0	432	604	563	487	
10	0	0	0	0	499	604	563	487	
11	0	0	0	0	537	605	563	487	
12	0	0	0	0	577	604	563	487	
13	0	0	0	0	619	605	563	487	
14	0	0	0	0	612	604	563	487	
15	0	0	0	0	607	604	564	487	
0	0	0	0	0	598	604	562	487	
1	0	0	0	0	632	604	563	487	
2	0	0	0	0	657	604	563	487	
3	0	0	0	0	604	604	563	487	
4	0	0	0	0	530	604	563	487	
5	0	0	0	0	476	604	562	487	
6	0	0	0	0	432	604	563	487	
7	0	0	0	0	404	604	563	487	
8	0	0	0	0	400	604	563	487	
9	0	0	0	0	408	605	563	488	
10	0	0	0	0	417	604	563	487	
11	0	0	0	0	401	604	563	487	
12	0	0	0	0	387	604	563	487	
13	0	0	0	0	417	604	563	487	
14	0	0	0	0	487	604	563	488	
15	0	0	0	0	532	604	563	487	
0	0	0	0	0	574	604	563	487	
1	0	0	0	0	596	604	563	487	
2	0	0	0	0	604	604	563	487	
3	0	0	0	0	612	604	563	487	
4	0	0	0	0	609	605	563	487	
5	0	0	0	0	644	604	563	487	
6	0	0	0	0	662	604	563	488	
7	0	0	0	0	599	604	563	487	
8	0	0	0	0	526	604	563	487	
9	0	0	0	0	479	604	563	487	
10	0	0	0	0	437	604	564	487	
11	0	0	0	0	415	604	563	487	
12	0	0	0	0	403	604	563	487	
13	0	0	0	0	399	604	563	487	
14	0	0	0	0	409	604	563	488	
15	0	0	0	0	399	604	563	487	
0	0	0	0	0	384	603	563	487	
1	0	0	0	0	419	604	563	487	
2	0	0	0	0	489	604	563	487	
3	0	0	0	0	542	604	563	487	
4	0	0	0	0	585	604	564	487	
5	0	0	0	0	602	604	563	487	
6	0	0	0	0	602	604	563	488	
7	0	0	0	0	604	603	564	487	
8	0	0	0	0	597	604	564	487	
9	0	0	0	0	636	604	563	487	
10	0	0	0	0	662	603	563	487	
11	0	0	0	0	608	603	563	487	
12	0	0	0	0	533	603	564	487	
13	0	0	0	0	475	603	564	487	
14	0	0	0	0	428	603	564	488	
15	0	0	0	0	403	603	564	487	
0	0	0	0	0	413	603	563	487	
1	0	0	0	0	411	604	564	487	
2	0	0	0	0	412	604	564	487	
3	0	0	0	0	392	603	564	487	
4	0	0	0	0	390	604	564	487	
5	0	0	0	0	423	603	564	487	
6	0	0	0	0	487	603	564	487	
7	0	0	0	0	536	603	563	487	
8	0	0	0	0	583	603	564	487	
9	0	0	0	0	610	603	564	487	
10	0	0	0	0	605	603	564	487	
11	0	0	0	0	608	603	564	487	
12	0	0	0	0	609	603	564	486	
13	0	0	0	0	636	604	564	487	
14	0	0	0	0	655	603	564	487	
15	0	0	0	0	600	603	564	487	
0	0	0	0	0	521	603	564	487	
1	0	0	0	0	469	603	564	487	
2	0	0	0	0	441	603	564	487	
3	0	0	0	0	414	603	564	487	
4	0	0	0	0	396	603	563	487	
5	0	0	0	0	399	603	563	487	
6	0	0	0	0	413	603	564	487	
7	0	0	0	0	411	603	564	486	
8	0	0	0	0	391	603	563	487	
9	0	0	0	0	419	603	563	486	
10	0	0	0	0	490	602	564	487	
11	0	0	0	0	540	603	564	487	
12	0	0	0	0	574	603	563	487	
13	0	0	0	0	593	602	564	487	
14	0	0	0	0	602	603	564	487	
15	0	0	0	0	618	603	564	487	
0	0	0	0	0	606	603	563	487	
1	0	0	0	0	640	603	564	487	
2	0	0	0	0	660	603	564	487	
3	0	0	0	0	601	603	564	486	
4	0	0	0	0	524	604	565	487	
5	0	0	0	0	477	603	563	487	
6	0	0	0	0	450	603	564	488	
7	0	0	0	0	412	603	564	487	
8	0	0	0	0	396	603	563	487	
9	0	0	0	0	397	603	564	486	
10	0	0	0	0	413	603	564	487	
11	0	0	0	0	400	603	563	486	
12	0	0	0	0	399	603	563	487	
13	0	0	0	0	425	603	563	487	
14	0	0	0	0	483	603	564	487	
15	0	0	0	0	529	603	563	487	
0	0	0	0	0	576	603	563	487	
1	0	0	0	0	595	603	563	487	
2	0	0	0	0	600	602	563	487	
3	0	0	0	0	611	603	563	487	
4	0	0	0	0	608	603	563	487	
5	0	0	0	0	638	603	563	487	
6	0	0	0	0	662	604	563	487	
7	0	0	0	0	603	603	563	487	
8	0	0	0	0	524	604	564	487	
9	0	0	0	0	476	604	563	487	
10	0	0	0	0	431	604	563	487	
11	0	0	0	0	414	603	563	487	
12	0	0	0	0	419	603	563	487	
13	0	0	0	0	406	604	563	487	
14	0	0	0	0	411	603	563	487	
15	0	0	0	0	397	603	562	486	
0	0	0	0	0	392	603	563	487	
1	0	0	0	0	423	603	563	487	
2	0	0	0	0	490	604	563	486	
3	0	0	0	0	539	604	563	487	
4	0	0	0	0	575	604	563	487	
5	0	0	0	0	597	604	563	486	
6	0	0	0	0	602	604	563	487	
7	0	0	0	0	605	604	563	487	
8	0	0	0	0	602	604	563	487	
9	0	0	0	0	642	604	563	487	
10	0	0	0	0	660	604	563	487	
11	0	0	0	0	600	604	563	487	
12	0	0	0	0	528	604	564	487	
13	0	0	0	0	475	604	563	487	
14	0	0	0	0	430	604	563	487	
15	0	0	0	0	409	604	563	486	
0	0	0	0	0	400	603	563	486	
1	0	0	0	0	406	604	563	487	
2	0	0	0	0	415	604	563	486	
3	0	0	0	0	401	604	563	487	
4	0	0	0	0	387	604	563	486	
5	0	0	0	0	419	604	563	486	
6	0	0	0	0	487	604	563	487	
7	0	0	0	0	531	604	563	487	
8	0	0	0	0	574	604	563	487	
9	0	0	0	0	591	604	563	487	
10	0	0	0	0	596	603	563	487	
11	0	0	0	0	616	604	564	487	
12	0	0	0	0	622	603	563	487	
13	0	0	0	0	648	604	563	486	
14	0	0	0	0	665	604	563	487	
15	0	0	0	0	600	604	563	486	
0	0	0	0	0	533	604	563	487	
1	0	0	0	0	479	604	563	486	
2	0	0	0	0	423	604	563	487	
3	0	0	0	0	401	604	563	487	
4	0	0	0	0	398	604	564	486	
5	0	0	0	0	407	604	563	487	
6	0	0	0	0	425	604	562	487	
7	0	0	0	0	407	604	563	487	
8	0	0	0	0	380	604	563	487	
9	0	0	0	0	434	603	563	486	
10	0	0	0	0	497	604	564	487	
11	0	0	0	0	533	604	563	487	
12	0	0	0	0	574	604	563	487	
13	0	0	0	0	592	604	563	487	
14	0	0	0	0	599	604	563	487	
15	0	0	0	0	604	604	563	487	
0	0	0	0	0	601	603	563	487	
1	0	0	0	0	655	604	563	487	
2	0	0	0	0	665	604	563	487	
3	0	0	0	0	597	604	564	487	
4	0	0	0	0	521	604	563	487	
5	0	0	0	0	472	604	563	487	
6	0	0	0	0	430	604	564	487	
7	0	0	0	0	416	604	564	487	
8	0	0	0	0	404	603	563	487	
9	0	0	0	0	396	603	564	487	
10	0	0	0	0	406	604	563	486	
11	0	0	0	0	409	604	564	486	
12	0	0	0	0	396	604	563	487	
13	0	0	0	0	426	604	564	487	
14	0	0	0	0	488	604	563	487	
15	0	0	0	0	539	603	564	487	
0	0	0	0	0	571	604	564	487	
1	0	0	0	0	586	604	563	487	
2	0	0	0	0	615	604	563	487	
3	0	0	0	0	612	603	563	487	
4	0	0	0	0	607	603	564	487	
5	0	0	0	0	656	603	564	487	
6	0	0	0	0	666	603	563	488	
7	0	0	0	0	600	603	563	487	
8	0	0	0	0	525	604	563	487	
9	0	0	0	0	476	603	563	487	
10	0	0	0	0	428	603	563	487	
11	0	0	0	0	400	603	563	487	
12	0	0	0	0	407	603	563	487	
13	0	0	0	0	416	603	563	487	
14	0	0	0	0	418	603	563	487	
15	0	0	0	0	398	603	563	487	
0	0	0	0	0	384	603	563	487	
1	0	0	0	0	418	603	563	487	
2	0	0	0	0	489	603	563	487	
3	0	0	0	0	539	603	563	487	
4	0	0	0	0	579	604	563	487	
5	0	0	0	0	600	603	565	487	
6	0	0	0	0	603	603	563	487	
7	0	0	0	0	603	603	563	487	
8	0	0	0	0	601	604	564	487	
9	0	0	0	0	636	603	563	487	
10	0	0	0	0	659	603	563	487	
11	0	0	0	0	596	603	563	487	
12	0	0	0	0	535	604	563	487	
13	0	0	0	0	486	603	563	487	
14	0	0	0	0	436	603	563	487	
15	0	0	0	0	406	604	563	487	
0	0	0	0	0	399	603	563	487	
1	0	0	0	0	404	604	564	487	
2	0	0	0	0	413	603	563	487	
3	0	0	0	0	399	603	563	487	
4	0	0	0	0	382	603	563	488	
5	0	0	0	0	422	604	563	487	
6	0	0	0	0	489	603	563	487	
7	0	0	0	0	529	603	563	487	
8	0	0	0	0	579	603	563	487	
9	0	0	0	0	606	604	563	487	
10	0	0	0	0	613	603	563	487	
11	0	0	0	0	612	604	564	487	
12	0	0	0	0	604	604	563	488	
13	0	0	0	0	644	603	563	488	
14	0	0	0	0	662	603	563	487	
15	0	0	0	0	600	604	563	487	
0	0	0	0	0	534	604	564	487	
1	0	0	0	0	472	604	564	487	
2	0	0	0	0	421	604	564	486	
3	0	0	0	0	405	604	563	487	
4	0	0	0	0	412	604	563	487	
5	0	0	0	0	406	604	563	487	
6	0	0	0	0	415	603	563	487	
7	0	0	0	0	401	604	563	487	
8	0	0	0	0	388	604	563	487	
9	0	0	0	0	419	604	564	487	
10	0	0	0	0	488	604	563	487	
11	0	0	0	0	539	604	563	487	
12	0	0	0	0	579	604	563	487	
13	0	0	0	0	596	604	563	487	
14	0	0	0	0	601	604	563	487	
15	0	0	0	0	606	604	564	487	
0	0	0	0	0	602	604	563	487	
1	0	0	0	0	642	604	564	487	
2	0	0	0	0	663	604	563	487	
3	0	0	0	0	604	604	563	487	
4	0	0	0	0	525	604	564	487	
5	0	0	0	0	467	604	563	487	
6	0	0	0	0	432	604	564	487	
7	0	0	0	0	406	604	563	487	
8	0	0	0	0	421	604	564	487	
9	0	0	0	0	418	603	564	487	
10	0	0	0	0	410	603	564	487	
11	0	0	0	0	396	604	564	487	
12	0	0	0	0	383	603	563	487	
13	0	0	0	0	409	603	563	487	
14	0	0	0	0	474	603	564	487	
15	0	0	0	0	550	603	563	487	
0	0	0	0	0	591	604	564	487	
1	0	0	0	0	600	603	564	487	
2	0	0	0	0	609	604	564	487	
3	0	0	0	0	612	603	564	487	
4	0	0	0	0	605	604	563	487	
5	0	0	0	0	639	603	563	487	
6	0	0	0	0	656	603	563	487	
7	0	0	0	0	592	603	563	487	
8	0	0	0	0	518	604	563	487	
9	0	0	0	0	473	604	563	487	
10	0	0	0	0	432	603	563	487	
11	0	0	0	0	419	603	563	487	
12	0	0	0	0	415	604	563	487	
13	0	0	0	0	413	604	563	487	
14	0	0	0	0	410	603	563	487	
15	0	0	0	0	403	603	563	487	
0	0	0	0	0	391	603	563	487	
1	0	0	0	0	414	603	563	487	
2	0	0	0	0	492	604	563	487	
3	0	0	0	0	539	603	563	487	
4	0	0	0	0	574	603	563	487	
5	0	0	0	0	588	604	563	487	
6	0	0	0	0	607	604	563	487	
7	0	0	0	0	605	604	563	487	
8	0	0	0	0	595	603	563	487	
9	0	0	0	0	637	604	564	487	
10	0	0	0	0	663	603	564	486	
11	0	0	0	0	608	604	563	487	
12	0	0	0	0	529	604	564	487	
13	0	0	0	0	486	603	563	486	
14	0	0	0	0	443	603	563	487	
15	0	0	0	0	412	603	564	486	
0	0	0	0	0	400	604	564	486	
1	0	0	0	0	399	604	563	487	
2	0	0	0	0	411	603	563	486	
3	0	0	0	0	396	603	563	487	
4	0	0	0	0	380	604	564	487	
5	0	0	0	0	412	604	563	487	
6	0	0	0	0	491	604	563	488	
7	0	0	0	0	544	603	564	487	
8	0	0	0	0	582	604	563	486	
9	0	0	0	0	608	603	563	487	
10	0	0	0	0	611	603	563	487	
11	0	0	0	0	609	604	563	487	
12	0	0	0	0	601	603	563	487	
13	0	0	0	0	636	603	563	487	
14	0	0	0	0	657	604	563	488	
15	0	0	0	0	600	604	563	487	
0	0	0	0	0	527	604	563	487	
1	0	0	0	0	479	603	563	487	
2	0	0	0	0	432	603	563	487	
3	0	0	0	0	407	604	563	487	
4	0	0	0	0	396	604	563	487	
5	0	0	0	0	398	603	564	487	
6	0	0	0	0	415	604	563	487	
7	0	0	0	0	406	603	563	487	
8	0	0	0	0	386	603	564	487	
9	0	0	0	0	414	604	563	487	
10	0	0	0	0	493	604	563	486	
11	0	0	0	0	546	603	564	486	
12	0	0	0	0	568	604	562	487	
13	0	0	0	0	579	604	563	487	
14	0	0	0	0	591	603	564	487	
15	0	0	0	0	604	604	563	487	
0	0	0	0	0	615	604	564	487	
1	0	0	0	0	651	604	563	487	
2	0	0	0	0	689	604	563	486	
3	0	0	0	0	640	603	563	487	
4	0	0	0	0	545	604	564	487	
5	0	0	0	0	473	604	564	487	
6	0	0	0	0	427	604	563	488	
7	0	0	0	0	401	604	563	487	
8	0	0	0	0	398	604	562	487	
9	0	0	0	0	399	604	563	487	
10	0	0	0	0	417	604	564	486	
11	0	0	0	0	401	604	563	487	
12	0	0	0	0	386	604	563	487	
13	0	0	0	0	416	604	563	487	
14	0	0	0	0	486	604	563	487	
15	0	0	0	0	533	604	563	487	
0	0	0	0	0	571	604	563	486	
1	0	0	0	0	593	604	563	486	
2	0	0	0	0	599	604	563	486	
3	0	0	0	0	601	604	563	487	
4	0	0	0	0	607	604	563	487	
5	0	0	0	0	644	604	563	487	
6	0	0	0	0	663	604	563	486	
7	0	0	0	0	598	604	563	487	
8	0	0	0	0	520	604	563	487	
9	0	0	0	0	474	604	563	487	
10	0	0	0	0	434	604	563	486	
11	0	0	0	0	415	604	564	487	
12	0	0	0	0	412	604	563	487	
13	0	0	0	0	406	604	563	487	
14	0	0	0	0	413	604	563	487	
15	0	0	0	0	399	604	563	487	
0	0	0	0	0	384	604	563	487	
1	0	0	0	0	414	604	563	487	
2	0	0	0	0	483	604	563	487	
3	0	0	0	0	536	604	563	487	
4	0	0	0	0	580	604	563	487	
5	0	0	0	0	603	604	563	486	
6	0	0	0	0	600	604	563	487	
7	0	0	0	0	608	604	564	487	
8	0	0	0	0	607	604	563	487	
9	0	0	0	0	642	604	563	487	
10	0	0	0	0	656	604	564	487	
11	0	0	0	0	614	604	563	486	
12	0	0	0	0	540	604	563	487	
13	0	0	0	0	480	603	564	486	
14	0	0	0	0	432	604	563	487	
15	0	0	0	0	408	604	563	486	
0	0	0	0	0	403	603	563	487	
1	0	0	0	0	401	604	563	487	
2	0	0	0	0	410	604	563	486	
3	0	0	0	0	397	604	563	487	
4	0	0	0	0	394	604	563	487	
5	0	0	0	0	423	604	563	487	
6	0	0	0	0	489	604	563	487	
7	0	0	0	0	537	604	563	487	
8	0	0	0	0	578	604	563	487	
9	0	0	0	0	598	604	563	487	
10	0	0	0	0	600	604	563	486	
11	0	0	0	0	603	604	563	487	
12	0	0	0	0	602	604	563	487	
13	0	0	0	0	640	604	563	487	
14	0	0	0	0	659	604	563	487	
15	0	0	0	0	599	604	564	487	
0	0	0	0	0	524	604	564	487	
1	0	0	0	0	481	604	564	487	
2	0	0	0	0	436	603	563	486	
3	0	0	0	0	409	604	563	486	
4	0	0	0	0	403	603	563	487	
5	0	0	0	0	406	604	564	487	
6	0	0	0	0	414	603	563	487	
7	0	0	0	0	395	603	563	487	
8	0	0	0	0	384	603	563	487	
9	0	0	0	0	430	603	563	487	
10	0	0	0	0	502	604	564	487	
11	0	0	0	0	542	603	563	487	
12	0	0	0	0	572	604	563	487	
13	0	0	0	0	595	604	563	487	
14	0	0	0	0	600	604	562	487	
15	0	0	0	0	611	603	564	487	
0	0	0	0	0	614	604	563	487	
1	0	0	0	0	645	603	563	487	
2	0	0	0	0	661	603	563	486	
3	0	0	0	0	603	604	563	487	
4	0	0	0	0	526	604	563	487	
5	0	0	0	0	475	604	563	487	
6	0	0	0	0	434	604	562	487	
7	0	0	0	0	407	604	564	487	
8	0	0	0	0	399	604	563	487	
9	0	0	0	0	402	604	563	488	
10	0	0	0	0	413	604	563	487	
11	0	0	0	0	401	604	563	487	
12	0	0	0	0	388	604	563	487	
13	0	0	0	0	420	604	563	487	
14	0	0	0	0	482	603	563	487	
15	0	0	0	0	534	603	563	487	
0	0	0	0	0	579	604	563	487	
1	0	0	0	0	589	603	563	487	
2	0	0	0	0	591	604	563	487	
3	0	0	0	0	600	604	563	487	
4	0	0	0	0	614	604	563	486	
5	0	0	0	0	664	604	563	487	
6	0	0	0	0	677	604	563	487	
7	0	0	0	0	607	604	563	486	
8	0	0	0	0	527	604	563	487	
9	0	0	0	0	471	604	563	487	
10	0	0	0	0	433	603	563	486	
11	0	0	0	0	414	604	564	487	
12	0	0	0	0	416	604	563	486	
13	0	0	0	0	404	604	563	487	
14	0	0	0	0	412	604	563	487	
15	0	0	0	0	395	604	563	487	
0	0	0	0	0	374	604	563	487	
1	0	0	0	0	414	603	563	487	
2	0	0	0	0	487	603	563	487	
3	0	0	0	0	538	604	564	486	
4	0	0	0	0	586	603	563	487	
5	0	0	0	0	603	604	563	486	
6	0	0	0	0	605	604	563	487	
7	0	0	0	0	607	604	564	487	
8	0	0	0	0	607	603	563	486	
9	0	0	0	0	642	603	563	486	
10	0	0	0	0	659	603	563	487	
11	0	0	0	0	598	603	563	487	
12	0	0	0	0	523	604	563	487	
13	0	0	0	0	470	604	564	487	
14	0	0	0	0	436	604	563	488	
15	0	0	0	0	410	604	564	487	
0	0	0	0	0	401	604	563	487	
1	0	0	0	0	402	603	563	487	
2	0	0	0	0	417	604	563	487	
3	0	0	0	0	398	604	563	487	
4	0	0	0	0	385	604	563	487	
5	0	0	0	0	429	604	563	487	
6	0	0	0	0	492	603	563	488	
7	0	0	0	0	541	604	563	487	
8	0	0	0	0	573	604	564	487	
9	0	0	0	0	597	604	563	487	
10	0	0	0	0	602	604	564	487	
11	0	0	0	0	604	604	563	487	
12	0	0	0	0	601	603	564	487	
13	0	0	0	0	641	604	563	487	
14	0	0	0	0	667	603	563	488	
15	0	0	0	0	603	604	563	487	
0	0	0	0	0	526	604	563	487	
1	0	0	0	0	470	604	563	487	
2	0	0	0	0	428	604	563	487	
3	0	0	0	0	406	604	563	487	
4	0	0	0	0	402	604	563	487	
5	0	0	0	0	405	604	564	487	
6	0	0	0	0	429	604	564	487	
7	0	0	0	0	417	604	563	487	
8	0	0	0	0	391	604	563	487	
9	0	0	0	0	415	604	563	487	
10	0	0	0	0	484	604	563	487	
11	0	0	0	0	535	604	564	487	
12	0	0	0	0	579	604	563	487	
13	0	0	0	0	599	604	563	487	
14	0	0	0	0	601	604	563	487	
15	0	0	0	0	609	604	563	487	
0	0	0	0	0	604	604	563	487	
1	0	0	0	0	640	604	563	487	
2	0	0	0	0	656	604	563	487	
3	0	0	0	0	598	603	563	487	
4	0	0	0	0	521	604	563	487	
5	0	0	0	0	470	604	563	487	
6	0	0	0	0	427	604	563	487	
7	0	0	0	0	401	604	564	487	
8	0	0	0	0	414	604	563	487	
9	0	0	0	0	408	604	563	487	
10	0	0	0	0	428	604	564	487	
11	0	0	0	0	413	604	564	487	
12	0	0	0	0	386	604	564	487	
13	0	0	0	0	412	604	563	487	
14	0	0	0	0	480	604	563	487	
15	0	0	0	0	533	604	563	487	
0	0	0	0	0	574	604	564	487	
1	0	0	0	0	596	604	563	487	
2	0	0	0	0	605	603	563	486	
3	0	0	0	0	632	604	563	487	
4	0	0	0	0	610	604	563	487	
5	0	0	0	0	636	604	563	487	
6	0	0	0	0	661	604	563	487	
7	0	0	0	0	603	604	563	487	
8	0	0	0	0	526	604	563	487	
9	0	0	0	0	474	603	563	487	
10	0	0	0	0	433	603	563	486	
11	0	0	0	0	408	604	563	487	
12	0	0	0	0	399	604	563	487	
13	0	0	0	0	392	604	564	487	
14	0	0	0	0	423	603	563	487	
15	0	0	0	0	413	604	562	487	
0	0	0	0	0	390	604	563	487	
1	0	0	0	0	417	604	564	486	
2	0	0	0	0	486	603	563	487	
3	0	0	0	0	537	604	564	487	
4	0	0	0	0	580	604	563	487	
5	0	0	0	0	598	604	563	487	
6	0	0	0	0	603	604	563	487	
7	0	0	0	0	605	603	563	487	
8	0	0	0	0	602	604	563	487	
9	0	0	0	0	635	603	563	487	
10	0	0	0	0	657	604	564	487	
11	0	0	0	0	600	604	563	487	
12	0	0	0	0	528	604	564	487	
13	0	0	0	0	478	604	563	487	
14	0	0	0	0	433	604	562	487	
15	0	0	0	0	406	603	563	487	
0	0	0	0	0	401	604	563	487	
1	0	0	0	0	400	604	563	487	
2	0	0	0	0	412	603	563	487	
3	0	0	0	0	407	603	563	487	
4	0	0	0	0	401	604	563	487	
5	0	0	0	0	421	604	563	487	
6	0	0	0	0	490	604	563	487	
7	0	0	0	0	540	604	563	487	
8	0	0	0	0	582	603	563	487	
9	0	0	0	0	596	603	563	487	
10	0	0	0	0	603	604	563	486	
11	0	0	0	0	623	604	564	487	
12	0	0	0	0	612	603	563	486	
13	0	0	0	0	640	604	563	487	
14	0	0	0	0	656	604	564	487	
15	0	0	0	0	593	603	563	486	
0	0	0	0	0	525	604	563	487	
1	0	0	0	0	479	603	564	487	
2	0	0	0	0	433	603	563	486	
3	0	0	0	0	408	603	563	487	
4	0	0	0	0	402	603	563	486	
5	0	0	0	0	406	604	564	487	
6	0	0	0	0	415	604	564	487	
7	0	0	0	0	397	604	564	486	
8	0	0	0	0	386	604	564	487	
9	0	0	0	0	417	603	564	486	
10	0	0	0	0	484	604	564	487	
11	0	0	0	0	539	603	564	486	
12	0	0	0	0	582	603	563	487	
13	0	0	0	0	604	604	563	487	
14	0	0	0	0	606	603	563	487	
15	0	0	0	0	608	604	563	487	
0	0	0	0	0	606	604	563	487	
1	0	0	0	0	637	603	563	487	
2	0	0	0	0	661	604	563	486	
3	0	0	0	0	602	604	563	487	
4	0	0	0	0	527	604	564	487	
5	0	0	0	0	479	603	564	487	
6	0	0	0	0	432	604	563	487	
7	0	0	0	0	405	604	563	487	
8	0	0	0	0	399	603	563	487	
9	0	0	0	0	399	604	563	486	
10	0	0	0	0	427	604	563	486	
11	0	0	0	0	407	604	564	486	
12	0	0	0	0	388	604	563	487	
13	0	0	0	0	415	603	563	487	
14	0	0	0	0	486	604	562	487	
15	0	0	0	0	536	603	563	486	
0	0	0	0	0	578	604	563	487	
1	0	0	0	0	599	604	564	487	
2	0	0	0	0	603	604	563	487	
3	0	0	0	0	612	604	563	487	
4	0	0	0	0	605	603	563	486	
5	0	0	0	0	637	603	563	486	
6	0	0	0	0	653	604	563	487	
7	0	0	0	0	609	603	563	486	
8	0	0	0	0	543	604	563	487	
9	0	0	0	0	484	603	563	486	
10	0	0	0	0	436	603	563	486	
11	0	0	0	0	409	603	563	487	
12	0	0	0	0	390	604	563	486	
13	0	0	0	0	407	604	563	486	
14	0	0	0	0	424	604	563	487	
15	0	0	0	0	399	603	563	487	
0	0	0	0	0	384	603	563	487	
1	0	0	0	0	419	604	563	487	
2	0	0	0	0	486	604	563	487	
3	0	0	0	0	535	603	563	487	
4	0	0	0	0	568	604	563	486	
5	0	0	0	0	589	604	563	487	
6	0	0	0	0	612	603	563	486	
7	0	0	0	0	614	604	564	487	
8	0	0	0	0	603	604	563	486	
9	0	0	0	0	635	603	563	486	
10	0	0	0	0	668	604	563	486	
11	0	0	0	0	611	604	563	486	
12	0	0	0	0	531	604	563	487	
13	0	0	0	0	473	604	563	487	
14	0	0	0	0	423	604	563	487	
15	0	0	0	0	417	604	564	487	
0	0	0	0	0	414	604	563	486	
1	0	0	0	0	408	604	563	486	
2	0	0	0	0	415	604	563	486	
3	0	0	0	0	396	604	563	487	
4	0	0	0	0	377	603	563	487	
5	0	0	0	0	420	603	563	487	
6	0	0	0	0	487	604	564	487	
7	0	0	0	0	536	603	563	486	
8	0	0	0	0	569	604	563	487	
9	0	0	0	0	591	604	563	487	
10	0	0	0	0	604	604	563	487	
11	0	0	0	0	610	603	563	487	
12	0	0	0	0	602	603	564	486	
13	0	0	0	0	628	603	564	487	
14	0	0	0	0	677	604	563	487	
15	0	0	0	0	623	603	563	487	
0	0	0	0	0	532	604	564	486	
1	0	0	0	0	472	604	563	487	
2	0	0	0	0	434	604	564	486	
3	0	0	0	0	414	604	564	487	
4	0	0	0	0	407	604	563	487	
5	0	0	0	0	401	604	563	486	
6	0	0	0	0	412	604	563	487	
7	0	0	0	0	398	604	563	487	
8	0	0	0	0	383	604	563	487	
9	0	0	0	0	420	604	563	487	
10	0	0	0	0	495	604	563	487	
11	0	0	0	0	538	604	563	487	
12	0	0	0	0	576	603	563	486	
13	0	0	0	0	598	603	563	486	
14	0	0	0	0	598	604	563	487	
15	0	0	0	0	606	604	563	487	
0	0	0	0	0	604	604	563	487	
1	0	0	0	0	646	604	563	487	
2	0	0	0	0	667	603	564	487	
3	0	0	0	0	604	604	563	486	
4	0	0	0	0	523	604	563	486	
5	0	0	0	0	476	604	563	486	
6	0	0	0	0	434	603	563	487	
7	0	0	0	0	404	603	563	486	
8	0	0	0	0	396	604	563	487	
9	0	0	0	0	397	603	564	487	
10	0	0	0	0	430	603	563	486	
11	0	0	0	0	410	604	563	486	
12	0	0	0	0	386	603	563	486	
13	0	0	0	0	417	604	563	487	
14	0	0	0	0	485	604	563	487	
15	0	0	0	0	533	604	563	487	
0	0	0	0	0	573	604	563	487	
1	0	0	0	0	594	604	563	486	
2	0	0	0	0	613	604	563	487	
3	0	0	0	0	610	604	563	487	
4	0	0	0	0	600	604	563	487	
5	0	0	0	0	633	604	563	487	
6	0	0	0	0	654	604	563	487	
7	0	0	0	0	597	604	563	487	
8	0	0	0	0	530	604	563	487	
9	0	0	0	0	480	603	563	487	
10	0	0	0	0	447	604	563	487	
11	0	0	0	0	423	604	564	487	
12	0	0	0	0	409	604	563	487	
13	0	0	0	0	402	604	563	487	
14	0	0	0	0	412	604	563	487	
15	0	0	0	0	401	604	563	487	
0	0	0	0	0	383	604	563	487	
1	0	0	0	0	410	604	563	487	
2	0	0	0	0	487	604	563	487	
3	0	0	0	0	536	604	564	487	
4	0	0	0	0	571	604	563	487	
5	0	0	0	0	610	604	563	487	
6	0	0	0	0	619	604	563	488	
7	0	0	0	0	611	604	564	487	
8	0	0	0	0	599	604	563	487	
9	0	0	0	0	635	603	563	487	
10	0	0	0	0	659	604	563	487	
11	0	0	0	0	603	604	563	487	
12	0	0	0	0	533	604	564	487	
13	0	0	0	0	476	604	563	487	
14	0	0	0	0	432	604	563	487	
15	0	0	0	0	412	604	563	487	
0	0	0	0	0	400	604	563	487	
1	0	0	0	0	398	604	564	487	
2	0	0	0	0	423	604	563	486	
3	0	0	0	0	405	604	563	487	
4	0	0	0	0	382	604	563	487	
5	0	0	0	0	413	604	563	487	
6	0	0	0	0	498	604	563	487	
7	0	0	0	0	548	604	563	487	
8	0	0	0	0	579	604	563	487	
9	0	0	0	0	598	603	564	487	
10	0	0	0	0	605	604	564	487	
11	0	0	0	0	606	604	564	487	
12	0	0	0	0	603	603	563	487	
13	0	0	0	0	632	603	563	487	
14	0	0	0	0	665	604	563	488	
15	0	0	0	0	603	604	563	487	
0	0	0	0	0	524	604	563	487	
1	0	0	0	0	476	604	563	487	
2	0	0	0	0	431	604	564	486	
3	0	0	0	0	408	603	563	487	
4	0	0	0	0	403	603	563	487	
5	0	0	0	0	401	603	563	487	
6	0	0	0	0	412	603	563	488	
7	0	0	0	0	401	604	563	487	
8	0	0	0	0	385	604	563	487	
9	0	0	0	0	417	603	563	487	
10	0	0	0	0	486	604	563	486	
11	0	0	0	0	535	603	563	487	
12	0	0	0	0	579	603	563	487	
13	0	0	0	0	599	603	563	487	
14	0	0	0	0	601	603	564	487	
15	0	0	0	0	610	604	563	487	
0	0	0	0	0	609	603	563	487	
1	0	0	0	0	643	603	563	487	
2	0	0	0	0	664	604	564	487	
3	0	0	0	0	600	603	563	487	
4	0	0	0	0	524	603	563	487	
5	0	0	0	0	469	604	563	487	
6	0	0	0	0	429	603	563	488	
7	0	0	0	0	403	603	563	487	
8	0	0	0	0	414	603	563	487	
9	0	0	0	0	416	604	563	487	
10	0	0	0	0	425	603	563	487	
11	0	0	0	0	412	603	563	487	
12	0	0	0	0	388	603	563	487	
13	0	0	0	0	413	604	563	486	
14	0	0	0	0	477	603	563	487	
15	0	0	0	0	526	603	563	486	
0	0	0	0	0	569	603	563	487	
1	0	0	0	0	593	603	563	487	
2	0	0	0	0	606	603	564	486	
3	0	0	0	0	624	603	564	487	
4	0	0	0	0	619	603	564	487	
5	0	0	0	0	647	603	563	487	
6	0	0	0	0	662	603	563	487	
7	0	0	0	0	600	604	563	487	
8	0	0	0	0	535	604	563	487	
9	0	0	0	0	481	604	564	487	
10	0	0	0	0	441	604	564	487	
11	0	0	0	0	413	604	563	487	
12	0	0	0	0	400	604	564	487	
13	0	0	0	0	401	603	563	487	
14	0	0	0	0	407	604	563	487	
15	0	0	0	0	393	604	563	487	
0	0	0	0	0	380	604	563	487	
1	0	0	0	0	410	604	563	487	
2	0	0	0	0	482	604	564	486	
3	0	0	0	0	530	604	563	486	
4	0	0	0	0	568	604	563	487	
5	0	0	0	0	603	604	563	487	
6	0	0	0	0	608	604	563	487	
7	0	0	0	0	611	604	564	487	
8	0	0	0	0	605	604	563	487	
9	0	0	0	0	643	604	563	487	
10	0	0	0	0	665	604	563	486	
11	0	0	0	0	603	604	563	487	
12	0	0	0	0	526	604	563	487	
13	0	0	0	0	474	603	563	487	
14	0	0	0	0	451	604	564	487	
15	0	0	0	0	421	604	563	487	
0	0	0	0	0	404	604	563	487	
1	0	0	0	0	402	604	563	487	
2	0	0	0	0	412	604	563	486	
3	0	0	0	0	397	604	564	487	
4	0	0	0	0	384	604	563	486	
5	0	0	0	0	417	604	563	487	
6	0	0	0	0	486	604	563	487	
7	0	0	0	0	536	604	563	487	
8	0	0	0	0	575	604	563	487	
9	0	0	0	0	595	604	563	487	
10	0	0	0	0	602	604	563	487	
11	0	0	0	0	606	604	563	487	
12	0	0	0	0	590	604	563	487	
13	0	0	0	0	653	604	563	487	
14	0	0	0	0	668	604	563	487	
15	0	0	0	0	588	604	563	487	
0	0	0	0	0	530	605	563	487	
1	0	0	0	0	491	604	563	487	
2	0	0	0	0	439	604	563	486	
3	0	0	0	0	404	605	563	487	
4	0	0	0	0	414	604	563	487	
5	0	0	0	0	409	604	563	487	
6	0	0	0	0	412	604	562	487	
7	0	0	0	0	399	603	563	487	
8	0	0	0	0	392	604	563	487	
9	0	0	0	0	423	604	563	487	
10	0	0	0	0	487	604	563	486	
11	0	0	0	0	536	603	563	487	
12	0	0	0	0	575	604	563	487	
13	0	0	0	0	599	604	563	487	
14	0	0	0	0	602	603	562	487	
15	0	0	0	0	602	604	563	487	
0	0	0	0	0	597	603	563	487	
1	0	0	0	0	630	603	563	487	
2	0	0	0	0	655	604	563	487	
3	0	0	0	0	604	604	563	486	
4	0	0	0	0	531	603	563	486	
5	0	0	0	0	471	603	563	487	
6	0	0	0	0	428	604	563	487	
7	0	0	0	0	412	603	563	486	
8	0	0	0	0	405	604	563	486	
9	0	0	0	0	410	604	564	486	
10	0	0	0	0	421	603	563	486	
11	0	0	0	0	422	604	563	486	
12	0	0	0	0	391	603	563	487	
13	0	0	0	0	414	603	563	486	
14	0	0	0	0	477	603	563	487	
15	0	0	0	0	527	604	563	486	
0	0	0	0	0	574	603	563	486	
1	0	0	0	0	599	604	564	486	
2	0	0	0	0	604	603	563	486	
3	0	0	0	0	604	604	563	486	
4	0	0	0	0	620	603	563	487	
5	0	0	0	0	653	603	563	487	
6	0	0	0	0	665	603	563	487	
7	0	0	0	0	606	603	563	487	
8	0	0	0	0	526	604	563	486	
9	0	0	0	0	475	604	563	486	
10	0	0	0	0	432	604	563	486	
11	0	0	0	0	401	604	564	486	
12	0	0	0	0	391	604	563	487	
13	0	0	0	0	392	603	563	487	
14	0	0	0	0	409	604	563	487	
15	0	0	0	0	404	603	563	487	
0	0	0	0	0	385	603	563	487	
1	0	0	0	0	432	603	563	487	
2	0	0	0	0	499	603	563	487	
3	0	0	0	0	544	603	563	487	
4	0	0	0	0	580	603	563	486	
5	0	0	0	0	594	603	563	487	
6	0	0	0	0	603	603	563	487	
7	0	0	0	0	609	603	563	487	
8	0	0	0	0	603	604	564	487	
9	0	0	0	0	639	603	563	487	
10	0	0	0	0	661	603	564	486	
11	0	0	0	0	600	603	563	487	
12	0	0	0	0	523	603	563	487	
13	0	0	0	0	473	604	563	487	
14	0	0	0	0	431	603	563	487	
15	0	0	0	0	408	603	563	487	
0	0	0	0	0	402	603	564	487	
1	0	0	0	0	411	603	563	486	
2	0	0	0	0	416	603	563	486	
3	0	0	0	0	405	603	563	487	
4	0	0	0	0	388	602	563	486	
5	0	0	0	0	409	603	563	487	
6	0	0	0	0	481	603	563	487	
7	0	0	0	0	533	603	563	487	
8	0	0	0	0	594	604	563	487	
9	0	0	0	0	608	604	563	487	
10	0	0	0	0	609	604	564	487	
11	0	0	0	0	605	604	564	487	
12	0	0	0	0	599	603	563	486	
13	0	0	0	0	638	603	563	487	
14	0	0	0	0	664	603	563	487	
15	0	0	0	0	599	603	563	486	
0	0	0	0	0	529	603	563	487	
1	0	0	0	0	480	603	563	487	
2	0	0	0	0	433	603	564	487	
3	0	0	0	0	409	604	563	487	
4	0	0	0	0	395	604	563	487	
5	0	0	0	0	395	603	564	487	
6	0	0	0	0	409	603	563	487	
7	0	0	0	0	397	603	563	487	
8	0	0	0	0	382	603	563	487	
9	0	0	0	0	429	602	564	486	
10	0	0	0	0	508	603	564	487	
11	0	0	0	0	546	603	563	487	
12	0	0	0	0	577	603	563	487	
13	0	0	0	0	598	603	563	487	
14	0	0	0	0	607	603	563	487	
15	0	0	0	0	608	604	564	487	
0	0	0	0	0	601	603	563	487	
1	0	0	0	0	637	603	564	487	
2	0	0	0	0	663	603	563	487	
3	0	0	0	0	604	604	564	486	
4	0	0	0	0	527	603	564	487	
5	0	0	0	0	476	603	564	487	
6	0	0	0	0	435	603	563	487	
7	0	0	0	0	408	603	563	487	
8	0	0	0	0	398	604	563	486	
9	0	0	0	0	395	603	563	487	
10	0	0	0	0	411	604	563	487	
11	0	0	0	0	403	604	563	487	
12	0	0	0	0	390	604	563	487	
13	0	0	0	0	423	604	563	487	
14	0	0	0	0	497	604	563	487	
15	0	0	0	0	543	604	563	487	
0	0	0	0	0	575	604	563	487	
1	0	0	0	0	592	604	563	487	
2	0	0	0	0	600	604	562	487	
3	0	0	0	0	604	604	564	487	
4	0	0	0	0	600	604	563	487	
5	0	0	0	0	644	604	563	487	
6	0	0	0	0	688	604	563	487	
7	0	0	0	0	608	604	563	487	
8	0	0	0	0	527	604	563	487	
9	0	0	0	0	475	604	563	487	
10	0	0	0	0	432	604	564	487	
11	0	0	0	0	405	604	563	487	
12	0	0	0	0	398	604	563	487	
13	0	0	0	0	397	604	563	487	
14	0	0	0	0	405	604	563	487	
15	0	0	0	0	397	604	564	486	
0	0	0	0	0	384	604	563	487	
1	0	0	0	0	415	604	563	487	
2	0	0	0	0	493	604	564	486	
3	0	0	0	0	539	604	563	487	
4	0	0	0	0	582	604	563	487	
5	0	0	0	0	591	604	563	487	
6	0	0	0	0	599	604	563	487	
7	0	0	0	0	620	604	563	487	
8	0	0	0	0	617	604	563	487	
9	0	0	0	0	645	604	564	487	
10	0	0	0	0	676	604	563	487	
11	0	0	0	0	616	604	562	487	
12	0	0	0	0	536	604	564	487	
13	0	0	0	0	478	604	563	487	
14	0	0	0	0	430	604	563	487	
15	0	0	0	0	403	604	563	487	
0	0	0	0	0	394	604	563	487	
1	0	0	0	0	401	604	563	487	
2	0	0	0	0	416	604	563	487	
3	0	0	0	0	407	604	564	487	
4	0	0	0	0	387	604	563	486	
5	0	0	0	0	412	604	563	487	
6	0	0	0	0	481	604	564	487	
7	0	0	0	0	534	604	563	487	
8	0	0	0	0	568	604	564	487	
9	0	0	0	0	589	604	563	487	
10	0	0	0	0	621	604	563	487	
11	0	0	0	0	624	604	564	487	
12	0	0	0	0	606	603	563	487	
13	0	0	0	0	639	604	563	487	
14	0	0	0	0	657	604	564	488	
15	0	0	0	0	598	604	563	487	
0	0	0	0	0	527	603	564	487	
1	0	0	0	0	481	604	564	487	
2	0	0	0	0	436	604	564	486	
3	0	0	0	0	407	604	564	487	
4	0	0	0	0	397	603	563	487	
5	0	0	0	0	398	603	564	487	
6	0	0	0	0	411	603	563	486	
7	0	0	0	0	403	603	563	486	
8	0	0	0	0	395	603	564	486	
9	0	0	0	0	415	603	564	487	
10	0	0	0	0	490	604	564	486	
11	0	0	0	0	543	603	564	487	
12	0	0	0	0	578	604	564	486	
13	0	0	0	0	601	604	564	487	
14	0	0	0	0	609	603	564	487	
15	0	0	0	0	604	603	563	487	
0	0	0	0	0	597	604	564	487	
1	0	0	0	0	631	604	563	487	
2	0	0	0	0	664	603	564	487	
3	0	0	0	0	610	604	563	487	
4	0	0	0	0	538	604	563	487	
5	0	0	0	0	483	603	563	486	
6	0	0	0	0	437	604	563	487	
7	0	0	0	0	415	603	563	487	
8	0	0	0	0	400	603	563	486	
9	0	0	0	0	394	603	564	487	
10	0	0	0	0	409	603	563	487	
11	0	0	0	0	399	603	563	487	
12	0	0	0	0	383	603	564	487	
13	0	0	0	0	412	603	564	486	
14	0	0	0	0	481	603	564	487	
15	0	0	0	0	527	603	563	487	
0	0	0	0	0	583	603	563	487	
1	0	0	0	0	607	603	564	487	
2	0	0	0	0	608	603	563	487	
3	0	0	0	0	611	604	564	487	
4	0	0	0	0	602	603	563	487	
5	0	0	0	0	638	603	564	486	
6	0	0	0	0	664	603	563	487	
7	0	0	0	0	605	603	564	486	
8	0	0	0	0	534	603	563	487	
9	0	0	0	0	478	603	563	487	
10	0	0	0	0	433	602	563	486	
11	0	0	0	0	412	603	563	487	
12	0	0	0	0	406	602	563	486	
13	0	0	0	0	405	603	563	487	
14	0	0	0	0	414	603	563	487	
15	0	0	0	0	399	603	563	486	
0	0	0	0	0	382	603	563	487	
1	0	0	0	0	412	603	564	487	
2	0	0	0	0	483	603	563	486	
3	0	0	0	0	533	603	563	486	
4	0	0	0	0	583	602	563	486	
5	0	0	0	0	611	603	563	486	
6	0	0	0	0	612	603	563	486	
7	0	0	0	0	606	603	564	487	
8	0	0	0	0	601	603	563	487	
9	0	0	0	0	638	603	563	487	
10	0	0	0	0	658	603	563	486	
11	0	0	0	0	603	603	563	486	
12	0	0	0	0	527	603	564	487	
13	0	0	0	0	470	603	563	487	
14	0	0	0	0	440	603	563	487	
15	0	0	0	0	414	603	563	486	
0	0	0	0	0	399	603	563	486	
1	0	0	0	0	394	603	563	487	
2	0	0	0	0	413	603	564	486	
3	0	0	0	0	424	603	563	487	
4	0	0	0	0	393	603	564	487	
5	0	0	0	0	415	603	563	487	
6	0	0	0	0	478	603	563	487	
7	0	0	0	0	537	603	563	487	
8	0	0	0	0	581	603	564	487	
9	0	0	0	0	598	603	564	486	
10	0	0	0	0	591	603	563	486	
11	0	0	0	0	620	604	564	486	
12	0	0	0	0	614	603	564	486	
13	0	0	0	0	642	603	563	487	
14	0	0	0	0	662	603	564	487	
15	0	0	0	0	603	603	563	486	
0	0	0	0	0	528	604	563	486	
1	0	0	0	0	481	603	563	487	
2	0	0	0	0	434	603	563	486	
3	0	0	0	0	412	603	564	486	
4	0	0	0	0	406	603	564	486	
5	0	0	0	0	407	603	563	487	
6	0	0	0	0	412	603	563	487	
7	0	0	0	0	396	603	564	487	
8	0	0	0	0	381	603	563	487	
9	0	0	0	0	415	604	564	487	
10	0	0	0	0	483	604	563	487	
11	0	0	0	0	533	603	564	487	
12	0	0	0	0	570	604	563	487	
13	0	0	0	0	599	604	563	487	
14	0	0	0	0	611	604	563	487	
15	0	0	0	0	612	604	563	487	
0	0	0	0	0	602	604	563	487	
1	0	0	0	0	633	604	563	487	
2	0	0	0	0	669	604	563	487	
3	0	0	0	0	618	604	563	487	
4	0	0	0	0	536	604	564	486	
5	0	0	0	0	479	604	563	487	
6	0	0	0	0	428	604	563	487	
7	0	0	0	0	408	604	563	487	
8	0	0	0	0	399	604	563	486	
9	0	0	0	0	398	604	563	487	
10	0	0	0	0	410	604	564	486	
11	0	0	0	0	409	604	563	487	
12	0	0	0	0	397	604	564	487	
13	0	0	0	0	413	604	563	487	
14	0	0	0	0	483	604	563	487	
15	0	0	0	0	536	604	564	487	
0	0	0	0	0	575	604	563	486	
1	0	0	0	0	593	604	563	487	
2	0	0	0	0	606	604	563	487	
3	0	0	0	0	618	604	563	487	
4	0	0	0	0	596	604	563	487	
5	0	0	0	0	625	604	563	487	
6	0	0	0	0	660	604	563	487	
7	0	0	0	0	610	604	563	487	
8	0	0	0	0	530	604	563	487	
9	0	0	0	0	483	604	563	486	
10	0	0	0	0	461	604	564	487	
11	0	0	0	0	417	604	563	487	
12	0	0	0	0	400	604	563	487	
13	0	0	0	0	401	604	563	487	
14	0	0	0	0	414	605	564	487	
15	0	0	0	0	399	604	563	487	
0	0	0	0	0	380	604	563	487	
1	0	0	0	0	408	604	563	486	
2	0	0	0	0	479	604	563	487	
3	0	0	0	0	535	604	563	487	
4	0	0	0	0	575	604	563	487	
5	0	0	0	0	593	604	562	487	
6	0	0	0	0	593	604	563	487	
7	0	0	0	0	619	604	563	487	
8	0	0	0	0	622	604	563	487	
9	0	0	0	0	648	604	563	487	
10	0	0	0	0	669	603	563	487	
11	0	0	0	0	607	604	563	487	
12	0	0	0	0	524	604	563	487	
13	0	0	0	0	471	604	563	487	
14	0	0	0	0	432	604	563	487	
15	0	0	0	0	405	604	563	487	
0	0	0	0	0	399	604	562	487	
1	0	0	0	0	399	604	563	487	
2	0	0	0	0	410	604	563	487	
3	0	0	0	0	399	604	563	487	
4	0	0	0	0	391	604	563	487	
5	0	0	0	0	423	604	563	487	
6	0	0	0	0	490	604	563	488	
7	0	0	0	0	542	604	563	487	
8	0	0	0	0	576	604	563	487	
9	0	0	0	0	594	604	563	487	
10	0	0	0	0	604	604	563	487	
11	0	0	0	0	613	604	563	486	
12	0	0	0	0	603	604	563	487	
13	0	0	0	0	640	604	563	487	
14	0	0	0	0	662	604	563	488	
15	0	0	0	0	600	604	563	487	
0	0	0	0	0	527	604	563	487	
1	0	0	0	0	478	604	563	487	
2	0	0	0	0	430	604	563	487	
3	0	0	0	0	410	604	564	487	
4	0	0	0	0	413	604	563	487	
5	0	0	0	0	411	604	564	487	
6	0	0	0	0	415	604	563	487	
7	0	0	0	0	403	603	563	487	
8	0	0	0	0	387	603	564	487	
9	0	0	0	0	413	603	564	487	
10	0	0	0	0	480	603	564	487	
11	0	0	0	0	530	604	565	487	
12	0	0	0	0	572	603	564	487	
13	0	0	0	0	592	603	564	487	
14	0	0	0	0	606	604	564	487	
15	0	0	0	0	628	604	563	487	
0	0	0	0	0	614	604	563	487	
1	0	0	0	0	644	603	564	487	
2	0	0	0	0	658	604	564	487	
3	0	0	0	0	601	604	563	487	
4	0	0	0	0	527	604	564	487	
5	0	0	0	0	476	603	563	487	
6	0	0	0	0	433	604	564	487	
7	0	0	0	0	403	603	564	487	
8	0	0	0	0	393	603	564	487	
9	0	0	0	0	404	603	564	487	
10	0	0	0	0	415	603	563	487	
11	0	0	0	0	409	604	563	487	
12	0	0	0	0	394	604	564	487	
13	0	0	0	0	421	604	563	487	
14	0	0	0	0	482	604	563	487	
15	0	0	0	0	536	604	564	487	
0	0	0	0	0	583	604	563	487	
1	0	0	0	0	601	604	564	487	
2	0	0	0	0	604	603	564	487	
3	0	0	0	0	602	604	563	487	
4	0	0	0	0	594	603	563	487	
5	0	0	0	0	630	604	564	487	
6	0	0	0	0	668	604	563	487	
7	0	0	0	0	619	603	564	487	
8	0	0	0	0	534	604	564	487	
9	0	0	0	0	480	603	564	487	
10	0	0	0	0	435	603	564	487	
11	0	0	0	0	410	603	564	487	
12	0	0	0	0	400	604	564	487	
13	0	0	0	0	405	603	564	487	
14	0	0	0	0	415	603	564	487	
15	0	0	0	0	398	603	564	486	
0	0	0	0	0	379	604	564	487	
1	0	0	0	0	414	603	564	487	
2	0	0	0	0	487	603	565	487	
3	0	0	0	0	534	603	564	487	
4	0	0	0	0	577	603	564	487	
5	0	0	0	0	615	603	563	487	
6	0	0	0	0	607	603	564	487	
7	0	0	0	0	607	603	563	487	
8	0	0	0	0	607	603	563	487	
9	0	0	0	0	630	603	563	487	
10	0	0	0	0	649	603	563	487	
11	0	0	0	0	617	603	564	487	
12	0	0	0	0	547	603	564	487	
13	0	0	0	0	483	603	564	487	
14	0	0	0	0	435	603	563	488	
15	0	0	0	0	408	603	563	487	
0	0	0	0	0	396	603	563	487	
1	0	0	0	0	391	603	563	487	
2	0	0	0	0	411	603	563	487	
3	0	0	0	0	396	603	563	487	
4	0	0	0	0	378	603	564	487	
5	0	0	0	0	411	603	563	487	
6	0	0	0	0	490	603	564	488	
7	0	0	0	0	544	603	564	487	
8	0	0	0	0	591	603	564	487	
9	0	0	0	0	606	603	563	487	
10	0	0	0	0	610	603	564	487	
11	0	0	0	0	614	603	564	487	
12	0	0	0	0	605	603	563	487	
13	0	0	0	0	638	603	563	487	
14	0	0	0	0	662	603	563	487	
15	0	0	0	0	602	603	563	487	
0	0	0	0	0	528	604	563	487	
1	0	0	0	0	477	604	563	487	
2	0	0	0	0	436	603	563	487	
3	0	0	0	0	412	603	563	487	
4	0	0	0	0	400	604	564	487	
5	0	0	0	0	396	604	564	487	
6	0	0	0	0	408	603	563	487	
7	0	0	0	0	408	603	563	487	
8	0	0	0	0	388	604	563	487	
9	0	0	0	0	417	603	563	487	
10	0	0	0	0	485	604	563	487	
11	0	0	0	0	532	604	564	487	
12	0	0	0	0	574	604	563	487	
13	0	0	0	0	597	604	563	487	
14	0	0	0	0	604	604	563	488	
15	0	0	0	0	611	604	563	487	
0	0	0	0	0	606	604	563	486	
1	0	0	0	0	643	604	563	487	
2	0	0	0	0	665	604	563	487	
3	0	0	0	0	602	603	563	486	
4	0	0	0	0	528	604	563	487	
5	0	0	0	0	478	604	563	487	
6	0	0	0	0	430	603	563	487	
7	0	0	0	0	406	603	563	487	
8	0	0	0	0	408	604	563	487	
9	0	0	0	0	408	604	563	487	
10	0	0	0	0	419	604	563	487	
11	0	0	0	0	402	604	563	487	
12	0	0	0	0	394	604	563	487	
13	0	0	0	0	419	604	563	487	
14	0	0	0	0	486	604	563	487	
15	0	0	0	0	531	603	563	487	
0	0	0	0	0	571	604	564	487	
1	0	0	0	0	595	604	563	487	
2	0	0	0	0	600	604	563	486	
3	0	0	0	0	596	603	564	487	
4	0	0	0	0	602	603	563	487	
5	0	0	0	0	665	604	563	487	
6	0	0	0	0	673	604	563	487	
7	0	0	0	0	600	603	563	486	
8	0	0	0	0	521	604	564	487	
9	0	0	0	0	474	604	563	487	
10	0	0	0	0	432	604	563	486	
11	0	0	0	0	412	604	563	486	
12	0	0	0	0	434	604	563	487	
13	0	0	0	0	414	604	563	487	
14	0	0	0	0	415	604	563	487	
15	0	0	0	0	401	604	563	487	
0	0	0	0	0	381	604	563	486	
1	0	0	0	0	408	604	563	486	
2	0	0	0	0	480	604	563	487	
3	0	0	0	0	533	604	563	487	
4	0	0	0	0	575	604	563	487	
5	0	0	0	0	604	604	564	487	
6	0	0	0	0	607	604	563	487	
7	0	0	0	0	606	604	564	487	
8	0	0	0	0	600	604	564	487	
9	0	0	0	0	629	603	563	487	
10	0	0	0	0	660	603	563	487	
11	0	0	0	0	613	604	563	487	
12	0	0	0	0	524	604	564	487	
13	0	0	0	0	469	603	563	487	
14	0	0	0	0	430	604	563	487	
15	0	0	0	0	413	603	564	487	
0	0	0	0	0	405	604	563	487	
1	0	0	0	0	403	604	563	487	
2	0	0	0	0	420	604	563	487	
3	0	0	0	0	407	604	563	487	
4	0	0	0	0	387	604	563	487	
5	0	0	0	0	412	604	563	487	
6	0	0	0	0	481	604	563	487	
7	0	0	0	0	536	604	563	487	
8	0	0	0	0	577	604	563	487	
9	0	0	0	0	597	604	563	486	
10	0	0	0	0	607	604	563	487	
11	0	0	0	0	614	604	563	487	
12	0	0	0	0	603	603	563	486	
13	0	0	0	0	638	604	563	487	
14	0	0	0	0	657	604	563	487	
15	0	0	0	0	604	604	563	486	
0	0	0	0	0	532	604	564	487	
1	0	0	0	0	483	603	563	487	
2	0	0	0	0	440	604	563	486	
3	0	0	0	0	413	604	564	487	
4	0	0	0	0	403	604	564	486	
5	0	0	0	0	405	604	563	487	
6	0	0	0	0	412	603	564	487	
7	0	0	0	0	397	603	563	487	
8	0	0	0	0	380	604	563	487	
9	0	0	0	0	421	604	564	486	
10	0	0	0	0	490	604	563	486	
11	0	0	0	0	536	604	564	487	
12	0	0	0	0	579	604	563	486	
13	0	0	0	0	604	604	563	487	
14	0	0	0	0	610	604	563	487	
15	0	0	0	0	609	603	563	487	
0	0	0	0	0	601	603	563	487	
1	0	0	0	0	633	603	563	487	
2	0	0	0	0	652	603	563	487	
3	0	0	0	0	595	604	563	487	
4	0	0	0	0	527	604	563	487	
5	0	0	0	0	475	603	563	487	
6	0	0	0	0	458	603	563	487	
7	0	0	0	0	431	603	563	487	
8	0	0	0	0	405	603	563	487	
9	0	0	0	0	396	604	564	487	
10	0	0	0	0	404	604	563	486	
11	0	0	0	0	395	603	563	487	
12	0	0	0	0	382	604	563	487	
13	0	0	0	0	412	603	563	487	
14	0	0	0	0	482	604	563	488	
15	0	0	0	0	542	603	563	487	
0	0	0	0	0	590	603	563	487	
1	0	0	0	0	594	604	563	486	
2	0	0	0	0	611	603	563	486	
3	0	0	0	0	617	604	564	487	
4	0	0	0	0	604	603	563	487	
5	0	0	0	0	639	603	564	487	
6	0	0	0	0	662	603	564	487	
7	0	0	0	0	609	604	563	487	
8	0	0	0	0	534	604	563	487	
9	0	0	0	0	473	603	563	487	
10	0	0	0	0	429	603	563	486	
11	0	0	0	0	409	603	564	487	
12	0	0	0	0	403	604	563	487	
13	0	0	0	0	398	604	564	487	
14	0	0	0	0	410	604	564	487	
15	0	0	0	0	398	604	563	486	
0	0	0	0	0	383	604	563	487	
1	0	0	0	0	413	604	564	487	
2	0	0	0	0	482	604	564	487	
3	0	0	0	0	531	604	563	487	
4	0	0	0	0	568	604	564	487	
5	0	0	0	0	605	604	564	487	
6	0	0	0	0	626	604	564	487	
7	0	0	0	0	620	604	564	487	
8	0	0	0	0	605	604	564	487	
9	0	0	0	0	642	604	564	487	
10	0	0	0	0	659	604	564	487	
11	0	0	0	0	601	604	564	487	
12	0	0	0	0	524	604	563	487	
13	0	0	0	0	473	604	564	487	
14	0	0	0	0	433	604	563	487	
15	0	0	0	0	416	604	564	487	
0	0	0	0	0	406	603	563	486	
1	0	0	0	0	400	603	563	487	
2	0	0	0	0	408	603	563	486	
3	0	0	0	0	392	603	563	487	
4	0	0	0	0	395	603	564	486	
5	0	0	0	0	420	603	563	487	
6	0	0	0	0	486	603	563	487	
7	0	0	0	0	538	603	563	487	
8	0	0	0	0	581	603	563	487	
9	0	0	0	0	597	603	563	487	
10	0	0	0	0	600	604	563	487	
11	0	0	0	0	603	603	563	487	
12	0	0	0	0	600	603	563	487	
13	0	0	0	0	649	603	564	486	
14	0	0	0	0	672	603	563	487	
15	0	0	0	0	603	603	563	486	
0	0	0	0	0	524	604	563	487	
1	0	0	0	0	474	603	563	487	
2	0	0	0	0	439	603	564	487	
3	0	0	0	0	413	603	563	486	
4	0	0	0	0	399	603	563	486	
5	0	0	0	0	396	603	564	487	
6	0	0	0	0	413	603	564	487	
7	0	0	0	0	404	602	564	487	
8	0	0	0	0	392	603	563	486	
9	0	0	0	0	418	603	563	487	
10	0	0	0	0	487	604	564	486	
11	0	0	0	0	536	603	563	487	
12	0	0	0	0	575	603	563	487	
13	0	0	0	0	594	603	564	487	
14	0	0	0	0	606	603	564	487	
15	0	0	0	0	597	603	564	487	
0	0	0	0	0	590	602	563	487	
1	0	0	0	0	648	602	563	487	
2	0	0	0	0	667	603	564	487	
3	0	0	0	0	594	602	564	487	
4	0	0	0	0	543	603	564	487	
5	0	0	0	0	491	602	563	487	
6	0	0	0	0	441	603	564	487	
7	0	0	0	0	412	603	563	486	
8	0	0	0	0	416	603	564	486	
9	0	0	0	0	417	603	563	487	
10	0	0	0	0	412	603	563	486	
11	0	0	0	0	398	603	563	486	
12	0	0	0	0	380	603	563	486	
13	0	0	0	0	409	603	563	486	
14	0	0	0	0	480	603	563	487	
15	0	0	0	0	540	603	563	487	
0	0	0	0	0	574	603	563	487	
1	0	0	0	0	601	603	564	487	
2	0	0	0	0	608	603	563	487	
3	0	0	0	0	607	603	564	487	
4	0	0	0	0	598	603	563	486	
5	0	0	0	0	629	604	563	486	
6	0	0	0	0	668	603	564	486	
7	0	0	0	0	613	603	563	486	
8	0	0	0	0	530	603	564	487	
9	0	0	0	0	472	604	563	486	
10	0	0	0	0	430	603	563	486	
11	0	0	0	0	408	604	563	486	
12	0	0	0	0	403	603	563	486	
13	0	0	0	0	407	604	563	486	
14	0	0	0	0	415	604	563	487	
15	0	0	0	0	401	604	563	486	
0	0	0	0	0	384	603	563	486	
1	0	0	0	0	411	603	563	486	
2	0	0	0	0	482	604	564	486	
3	0	0	0	0	530	603	563	486	
4	0	0	0	0	564	604	564	486	
5	0	0	0	0	583	603	563	487	
6	0	0	0	0	621	603	562	486	
7	0	0	0	0	644	603	563	487	
8	0	0	0	0	621	603	563	487	
9	0	0	0	0	649	603	563	487	
10	0	0	0	0	662	603	563	486	
11	0	0	0	0	603	603	563	487	
12	0	0	0	0	532	604	564	487	
13	0	0	0	0	478	603	563	487	
14	0	0	0	0	437	603	563	487	
15	0	0	0	0	412	604	563	487	
0	0	0	0	0	396	604	562	487	
1	0	0	0	0	395	603	563	487	
2	0	0	0	0	412	603	563	486	
3	0	0	0	0	396	604	563	487	
4	0	0	0	0	375	604	563	487	
5	0	0	0	0	400	604	563	487	
6	0	0	0	0	478	603	563	487	
7	0	0	0	0	531	604	563	486	
8	0	0	0	0	568	603	563	487	
9	0	0	0	0	589	603	563	487	
10	0	0	0	0	591	604	563	487	
11	0	0	0	0	600	604	563	487	
12	0	0	0	0	604	604	563	487	
13	0	0	0	0	650	603	564	487	
14	0	0	0	0	712	603	563	487	
15	0	0	0	0	654	604	563	486	
0	0	0	0	0	563	604	563	487	
1	0	0	0	0	522	604	563	487	
2	0	0	0	0	465	604	563	486	
3	0	0	0	0	403	604	563	486	
4	0	0	0	0	351	604	563	487	
5	0	0	0	0	353	604	563	487	
6	0	0	0	0	395	604	563	487	
7	0	0	0	0	407	604	563	486	
8	0	0	0	0	398	604	564	486	
9	0	0	0	0	438	604	563	485	
10	0	0	0	0	488	604	563	485	
11	0	0	0	0	487	604	563	486	
12	0	0	0	0	531	604	563	485	
13	0	0	0	0	636	604	562	485	
14	0	0	0	0	587	604	562	485	
15	0	0	0	0	612	604	562	483	
0	0	0	0	0	601	604	563	484	
1	0	0	0	0	587	604	562	483	
2	0	0	0	0	619	604	563	483	
3	0	0	0	0	656	604	562	483	
4	0	0	0	0	592	604	562	483	
5	0	0	0	0	492	604	562	482	
6	0	0	0	0	390	604	562	484	
7	0	0	0	0	607	604	562	483	
8	0	0	0	0	474	604	563	483	
9	0	0	0	0	405	604	563	486	
10	0	0	0	0	370	604	563	488	
11	0	0	0	0	488	603	563	489	
12	0	0	0	0	437	604	564	490	
13	0	0	0	0	380	603	564	491	
14	0	0	0	0	409	604	566	492	
15	0	0	0	0	475	604	567	492	
0	0	0	0	0	590	605	568	496	
1	0	0	0	0	607	606	568	500	
2	0	0	0	0	583	606	568	501	
3	0	0	0	0	605	607	568	499	
4	0	0	0	0	588	607	568	496	
5	0	0	0	0	456	608	568	495	
6	0	0	0	0	423	608	568	494	
7	0	0	0	0	866	607	568	494	
8	0	0	0	0	624	609	568	495	
9	0	0	0	0	390	603	565	491	
10	0	0	0	0	434	600	563	489	
11	0	0	0	0	298	598	563	487	
12	0	0	0	0	226	595	563	484	
13	0	0	0	0	211	591	563	482	
14	0	0	0	0	304	588	562	480	
15	0	0	0	0	507	585	564	479	
0	0	0	0	0	491	585	565	480	
1	0	0	0	0	335	584	566	482	
2	0	0	0	0	781	584	567	484	
3	0	0	0	0	827	584	568	486	
4	0	0	0	0	624	586	568	487	
5	0	0	0	0	395	588	569	487	
6	0	0	0	0	363	590	568	488	
7	0	0	0	0	667	595	568	488	
8	0	0	0	0	744	600	568	489	
9	0	0	0	0	837	605	568	491	
10	0	0	0	0	836	609	567	492	
11	0	0	0	0	710	614	566	495	
12	0	0	0	0	503	618	564	497	
13	0	0	0	0	391	621	565	501	
14	0	0	0	0	419	624	565	503	
15	0	0	0	0	481	626	566	504	
0	0	0	0	0	509	628	568	504	
1	0	0	0	0	553	631	568	505	
2	0	0	0	0	440	632	569	504	
3	0	0	0	0	216	633	569	501	
4	0	0	0	0	143	633	569	500	
5	0	0	0	0	300	633	571	499	
6	0	0	0	0	384	632	569	499	
7	0	0	0	0	292	631	569	498	
8	0	0	0	0	475	630	568	498	
9	0	0	0	0	560	627	568	498	
10	0	0	0	0	528	626	566	499	
11	0	0	0	0	705	625	568	499	
12	0	0	0	0	717	624	569	499	
13	0	0	0	0	771	624	569	497	
14	0	0	0	0	736	624	570	496	
15	0	0	0	0	684	624	570	495	
0	0	0	0	0	645	625	570	495	
1	0	0	0	0	464	625	569	493	
2	0	0	0	0	453	625	568	493	
3	0	0	0	0	586	625	568	492	
4	0	0	0	0	433	625	567	492	
5	0	0	0	0	267	625	566	492	
6	0	0	0	0	328	626	565	491	
7	0	0	0	0	399	626	564	487	
8	0	0	0	0	378	623	564	486	
9	0	0	0	0	377	623	564	485	
10	0	0	0	0	317	624	564	486	
11	0	0	0	0	445	625	562	487	
12	0	0	0	0	629	626	562	485	
13	0	0	0	0	663	625	561	484	
14	0	0	0	0	681	624	559	484	
15	0	0	0	0	647	624	558	483	
0	0	0	0	0	649	621	557	483	
1	0	0	0	0	703	619	556	483	
2	0	0	0	0	648	616	556	483	
3	0	0	0	0	551	613	556	484	
4	0	0	0	0	468	610	555	486	
5	0	0	0	0	425	607	556	486	
6	0	0	0	0	382	604	555	486	
7	0	0	0	0	384	601	556	486	
8	0	0	0	0	427	599	555	486	
9	0	0	0	0	472	595	555	487	
10	0	0	0	0	475	593	554	487	
11	0	0	0	0	441	590	555	486	
12	0	0	0	0	447	588	554	487	
13	0	0	0	0	463	587	553	487	
14	0	0	0	0	493	586	553	488	
15	0	0	0	0	523	585	553	488	
0	0	0	0	0	558	585	555	488	
1	0	0	0	0	579	585	556	488	
2	0	0	0	0	586	585	556	487	
3	0	0	0	0	588	585	556	489	
4	0	0	0	0	587	586	556	489	
5	0	0	0	0	620	587	556	490	
6	0	0	0	0	647	587	557	491	
7	0	0	0	0	599	587	557	491	
8	0	0	0	0	523	588	558	492	
9	0	0	0	0	473	589	558	491	
10	0	0	0	0	440	590	559	491	
11	0	0	0	0	415	589	559	492	
12	0	0	0	0	408	589	559	493	
13	0	0	0	0	411	589	558	493	
14	0	0	0	0	418	589	558	494	
15	0	0	0	0	407	589	559	493	
0	0	0	0	0	398	590	558	493	
1	0	0	0	0	421	589	558	493	
2	0	0	0	0	490	590	559	493	
3	0	0	0	0	532	589	559	494	
4	0	0	0	0	575	590	558	494	
5	0	0	0	0	592	589	559	494	
6	0	0	0	0	598	590	559	495	
7	0	0	0	0	602	591	559	495	
8	0	0	0	0	599	591	560	494	
9	0	0	0	0	626	591	560	494	
10	0	0	0	0	649	591	560	495	
11	0	0	0	0	598	592	561	494	
12	0	0	0	0	530	592	561	495	
13	0	0	0	0	488	592	561	494	
14	0	0	0	0	447	592	561	494	
15	0	0	0	0	415	592	562	494	
0	0	0	0	0	409	592	561	494	
1	0	0	0	0	400	592	561	494	
2	0	0	0	0	404	592	562	493	
3	0	0	0	0	397	591	562	492	
4	0	0	0	0	388	591	563	491	
5	0	0	0	0	423	591	563	491	
6	0	0	0	0	495	591	563	491	
7	0	0	0	0	535	590	563	489	
8	0	0	0	0	573	590	564	488	
9	0	0	0	0	596	590	564	487	
10	0	0	0	0	604	590	563	486	
11	0	0	0	0	603	589	565	485	
12	0	0	0	0	595	589	564	484	
13	0	0	0	0	622	588	565	483	
14	0	0	0	0	643	588	564	483	
15	0	0	0	0	594	589	564	481	
0	0	0	0	0	529	589	564	480	
1	0	0	0	0	484	588	565	479	
2	0	0	0	0	442	588	564	478	
3	0	0	0	0	421	588	564	477	
4	0	0	0	0	411	589	563	476	
5	0	0	0	0	414	589	564	476	
6	0	0	0	0	425	589	563	475	
7	0	0	0	0	417	589	563	474	
8	0	0	0	0	403	589	563	473	
9	0	0	0	0	427	589	563	472	
10	0	0	0	0	493	588	564	471	
11	0	0	0	0	537	588	565	472	
12	0	0	0	0	572	588	563	471	
13	0	0	0	0	590	588	564	471	
14	0	0	0	0	597	589	563	471	
15	0	0	0	0	593	588	564	469	
0	0	0	0	0	592	589	564	469	
1	0	0	0	0	625	589	563	468	
2	0	0	0	0	656	589	563	467	
3	0	0	0	0	608	589	564	467	
4	0	0	0	0	537	590	564	467	
5	0	0	0	0	488	590	564	467	
6	0	0	0	0	452	590	564	467	
7	0	0	0	0	414	591	564	466	
8	0	0	0	0	396	591	563	465	
9	0	0	0	0	399	591	564	465	
10	0	0	0	0	408	591	564	464	
11	0	0	0	0	399	592	564	464	
12	0	0	0	0	387	593	564	464	
13	0	0	0	0	417	593	563	465	
14	0	0	0	0	487	595	563	466	
15	0	0	0	0	539	596	563	464	
0	0	0	0	0	578	599	563	464	
1	0	0	0	0	597	602	562	466	
2	0	0	0	0	605	605	562	465	
3	0	0	0	0	608	607	563	464	
4	0	0	0	0	601	608	563	464	
5	0	0	0	0	637	608	563	462	
6	0	0	0	0	654	605	564	461	
7	0	0	0	0	602	600	565	460	
8	0	0	0	0	532	596	566	461	
9	0	0	0	0	484	592	566	462	
10	0	0	0	0	438	589	565	462	
11	0	0	0	0	413	586	565	462	
12	0	0	0	0	410	584	565	462	
13	0	0	0	0	412	585	565	462	
14	0	0	0	0	423	586	564	464	
15	0	0	0	0	409	587	564	463	
0	0	0	0	0	394	587	564	460	
1	0	0	0	0	415	586	564	459	
2	0	0	0	0	482	585	564	457	
3	0	0	0	0	531	584	564	459	
4	0	0	0	0	570	585	564	461	
5	0	0	0	0	596	586	563	465	
6	0	0	0	0	610	588	562	468	
7	0	0	0	0	613	590	561	468	
8	0	0	0	0	601	591	561	466	
9	0	0	0	0	632	593	562	465	
10	0	0	0	0	656	594	561	463	
11	0	0	0	0	602	595	563	463	
12	0	0	0	0	531	596	562	462	
13	0	0	0	0	479	596	561	462	
14	0	0	0	0	437	597	560	463	
15	0	0	0	0	412	598	560	461	
0	0	0	0	0	405	599	560	461	
1	0	0	0	0	407	599	560	461	
2	0	0	0	0	415	598	560	460	
3	0	0	0	0	400	598	560	460	
4	0	0	0	0	383	598	560	461	
5	0	0	0	0	414	598	560	461	
6	0	0	0	0	488	599	560	462	
7	0	0	0	0	540	600	559	461	
8	0	0	0	0	572	601	560	461	
9	0	0	0	0	596	602	560	461	
10	0	0	0	0	608	602	560	460	
11	0	0	0	0	614	603	560	460	
12	0	0	0	0	602	603	559	460	
13	0	0	0	0	637	604	560	460	
14	0	0	0	0	654	605	559	462	
15	0	0	0	0	603	606	559	461	
0	0	0	0	0	529	607	559	462	
1	0	0	0	0	475	607	559	462	
2	0	0	0	0	423	607	559	462	
3	0	0	0	0	412	607	560	462	
4	0	0	0	0	412	608	559	463	
5	0	0	0	0	415	608	558	464	
6	0	0	0	0	434	608	558	464	
7	0	0	0	0	415	608	558	464	
8	0	0	0	0	416	608	558	464	
9	0	0	0	0	442	608	558	465	
10	0	0	0	0	498	608	558	465	
11	0	0	0	0	539	607	559	466	
12	0	0	0	0	576	607	558	467	
13	0	0	0	0	592	607	559	468	
14	0	0	0	0	602	606	558	469	
15	0	0	0	0	604	606	558	470	
0	0	0	0	0	600	605	558	470	
1	0	0	0	0	630	605	558	471	
2	0	0	0	0	651	605	558	471	
3	0	0	0	0	605	605	559	472	
4	0	0	0	0	528	605	558	472	
5	0	0	0	0	471	604	558	473	
6	0	0	0	0	432	604	559	473	
7	0	0	0	0	412	604	558	473	
8	0	0	0	0	400	604	559	474	
9	0	0	0	0	398	604	559	475	
10	0	0	0	0	414	604	559	475	
11	0	0	0	0	395	604	559	475	
12	0	0	0	0	395	604	560	475	
13	0	0	0	0	412	604	558	476	
14	0	0	0	0	474	604	559	477	
15	0	0	0	0	518	604	559	476	
0	0	0	0	0	568	604	560	477	
1	0	0	0	0	610	604	560	477	
2	0	0	0	0	611	604	559	478	
3	0	0	0	0	611	605	560	478	
4	0	0	0	0	616	604	560	479	
5	0	0	0	0	655	604	559	479	
6	0	0	0	0	668	604	560	480	
7	0	0	0	0	623	605	560	479	
8	0	0	0	0	531	605	560	480	
9	0	0	0	0	469	604	560	480	
10	0	0	0	0	431	604	560	480	
11	0	0	0	0	408	604	559	481	
12	0	0	0	0	396	604	560	481	
13	0	0	0	0	400	605	560	482	
14	0	0	0	0	409	605	560	482	
15	0	0	0	0	400	605	560	481	
0	0	0	0	0	379	605	560	482	
1	0	0	0	0	410	605	560	482	
2	0	0	0	0	477	606	561	482	
3	0	0	0	0	532	605	560	482	
4	0	0	0	0	601	605	560	482	
5	0	0	0	0	601	606	561	482	
6	0	0	0	0	600	606	560	483	
7	0	0	0	0	600	606	560	483	
8	0	0	0	0	596	606	559	483	
9	0	0	0	0	633	607	560	483	
10	0	0	0	0	660	606	561	483	
11	0	0	0	0	603	607	561	483	
12	0	0	0	0	533	608	560	483	
13	0	0	0	0	482	607	560	483	
14	0	0	0	0	437	608	560	483	
15	0	0	0	0	406	608	561	483	
0	0	0	0	0	393	608	560	483	
1	0	0	0	0	390	609	561	483	
2	0	0	0	0	402	608	561	483	
3	0	0	0	0	399	609	561	483	
4	0	0	0	0	410	609	560	484	
5	0	0	0	0	435	609	560	483	
6	0	0	0	0	489	609	561	485	
7	0	0	0	0	536	610	560	484	
8	0	0	0	0	580	610	560	484	
9	0	0	0	0	593	610	560	484	
10	0	0	0	0	611	611	561	484	
11	0	0	0	0	612	611	561	485	
12	0	0	0	0	596	611	562	485	
13	0	0	0	0	631	611	560	484	
14	0	0	0	0	653	611	560	485	
15	0	0	0	0	604	611	560	486	
0	0	0	0	0	534	612	561	486	
1	0	0	0	0	482	611	561	486	
2	0	0	0	0	437	611	561	487	
3	0	0	0	0	412	611	561	487	
4	0	0	0	0	416	611	560	486	
5	0	0	0	0	411	611	562	487	
6	0	0	0	0	413	611	561	487	
7	0	0	0	0	403	610	562	487	
8	0	0	0	0	403	610	562	487	
9	0	0	0	0	421	610	561	486	
10	0	0	0	0	486	610	562	486	
11	0	0	0	0	534	610	562	487	
12	0	0	0	0	575	609	562	487	
13	0	0	0	0	600	609	563	487	
14	0	0	0	0	606	609	562	487	
15	0	0	0	0	606	609	562	488	
0	0	0	0	0	600	608	563	487	
1	0	0	0	0	633	608	562	488	
2	0	0	0	0	650	608	562	487	
3	0	0	0	0	592	608	562	488	
4	0	0	0	0	522	607	563	487	
5	0	0	0	0	479	608	563	488	
6	0	0	0	0	446	607	563	488	
7	0	0	0	0	420	608	562	488	
8	0	0	0	0	408	608	562	488	
9	0	0	0	0	403	608	562	488	
10	0	0	0	0	409	607	563	488	
11	0	0	0	0	391	608	563	488	
12	0	0	0	0	381	608	562	488	
13	0	0	0	0	415	608	562	488	
14	0	0	0	0	483	608	562	489	
15	0	0	0	0	537	608	561	489	
0	0	0	0	0	574	609	561	489	
1	0	0	0	0	599	608	562	489	
2	0	0	0	0	625	608	561	489	
3	0	0	0	0	615	608	562	488	
4	0	0	0	0	605	608	562	489	
5	0	0	0	0	636	608	561	489	
6	0	0	0	0	659	608	562	489	
7	0	0	0	0	602	607	562	489	
8	0	0	0	0	527	607	563	489	
9	0	0	0	0	475	607	562	489	
10	0	0	0	0	430	606	562	489	
11	0	0	0	0	420	606	563	489	
12	0	0	0	0	403	606	563	489	
13	0	0	0	0	402	606	563	489	
14	0	0	0	0	410	606	562	490	
15	0	0	0	0	396	605	562	489	
0	0	0	0	0	381	605	562	490	
1	0	0	0	0	412	605	562	489	
2	0	0	0	0	482	605	563	489	
3	0	0	0	0	532	605	563	490	
4	0	0	0	0	576	605	563	489	
5	0	0	0	0	600	605	563	489	
6	0	0	0	0	606	605	563	490	
7	0	0	0	0	609	605	563	490	
8	0	0	0	0	609	605	563	490	
9	0	0	0	0	643	604	563	490	
10	0	0	0	0	665	604	563	489	
11	0	0	0	0	611	604	563	490	
12	0	0	0	0	529	604	564	490	
13	0	0	0	0	483	604	563	490	
14	0	0	0	0	433	604	563	490	
15	0	0	0	0	404	604	563	490	
0	0	0	0	0	401	604	564	490	
1	0	0	0	0	401	604	563	490	
2	0	0	0	0	414	603	564	489	
3	0	0	0	0	399	604	563	490	
4	0	0	0	0	384	603	563	491	
5	0	0	0	0	416	604	563	491	
6	0	0	0	0	496	604	563	491	
7	0	0	0	0	546	603	563	490	
8	0	0	0	0	593	603	564	491	
9	0	0	0	0	620	603	563	491	
10	0	0	0	0	623	603	564	490	
11	0	0	0	0	628	603	563	491	
12	0	0	0	0	612	602	563	491	
13	0	0	0	0	646	603	564	491	
14	0	0	0	0	663	602	564	492	
15	0	0	0	0	607	602	563	490	
0	0	0	0	0	534	602	564	491	
1	0	0	0	0	477	602	563	491	
2	0	0	0	0	435	601	563	490	
3	0	0	0	0	398	602	564	491	
4	0	0	0	0	381	602	564	491	
5	0	0	0	0	383	602	564	492	
6	0	0	0	0	408	601	564	492	
7	0	0	0	0	404	602	564	491	
8	0	0	0	0	392	601	564	491	
9	0	0	0	0	437	601	564	491	
10	0	0	0	0	496	601	564	491	
11	0	0	0	0	531	601	564	491	
12	0	0	0	0	572	601	564	490	
13	0	0	0	0	591	601	564	491	
14	0	0	0	0	601	601	564	492	
15	0	0	0	0	605	601	565	492	
0	0	0	0	0	595	601	563	491	
1	0	0	0	0	629	600	565	491	
2	0	0	0	0	655	600	565	491	
3	0	0	0	0	606	600	564	491	
4	0	0	0	0	534	600	565	491	
5	0	0	0	0	483	600	565	490	
6	0	0	0	0	434	601	564	492	
7	0	0	0	0	407	600	564	491	
8	0	0	0	0	397	600	564	491	
9	0	0	0	0	402	600	565	491	
10	0	0	0	0	403	600	564	490	
11	0	0	0	0	390	600	564	490	
12	0	0	0	0	377	600	564	490	
13	0	0	0	0	427	600	564	491	
14	0	0	0	0	499	600	564	491	
15	0	0	0	0	537	600	564	490	
0	0	0	0	0	582	600	565	490	
1	0	0	0	0	596	599	564	491	
2	0	0	0	0	603	600	564	489	
3	0	0	0	0	612	599	564	489	
4	0	0	0	0	608	600	564	489	
5	0	0	0	0	637	600	563	489	
6	0	0	0	0	650	600	564	491	
7	0	0	0	0	603	600	564	489	
8	0	0	0	0	529	600	564	490	
9	0	0	0	0	473	600	565	488	
10	0	0	0	0	433	601	565	489	
11	0	0	0	0	409	601	565	488	
12	0	0	0	0	402	600	565	488	
13	0	0	0	0	402	600	564	489	
14	0	0	0	0	409	600	563	489	
15	0	0	0	0	398	601	564	489	
0	0	0	0	0	386	600	564	489	
1	0	0	0	0	412	600	563	489	
2	0	0	0	0	477	600	563	489	
3	0	0	0	0	534	600	564	489	
4	0	0	0	0	588	600	564	488	
5	0	0	0	0	614	601	564	488	
6	0	0	0	0	609	601	564	489	
7	0	0	0	0	611	601	564	489	
8	0	0	0	0	601	601	563	488	
9	0	0	0	0	635	601	563	488	
10	0	0	0	0	656	602	564	488	
11	0	0	0	0	600	602	564	489	
12	0	0	0	0	531	602	563	489	
13	0	0	0	0	474	602	563	488	
14	0	0	0	0	424	602	563	488	
15	0	0	0	0	417	602	563	488	
0	0	0	0	0	414	602	563	487	
1	0	0	0	0	408	603	563	488	
2	0	0	0	0	425	603	563	487	
3	0	0	0	0	420	602	563	487	
4	0	0	0	0	392	603	563	488	
5	0	0	0	0	422	603	563	487	
6	0	0	0	0	490	602	564	488	
7	0	0	0	0	533	603	563	487	
8	0	0	0	0	574	603	563	487	
9	0	0	0	0	595	603	563	487	
10	0	0	0	0	605	603	563	487	
11	0	0	0	0	608	603	564	487	
12	0	0	0	0	598	603	563	487	
13	0	0	0	0	632	603	563	487	
14	0	0	0	0	659	603	564	487	
15	0	0	0	0	601	603	564	487	
0	0	0	0	0	530	603	564	486	
1	0	0	0	0	478	603	563	486	
2	0	0	0	0	433	603	563	486	
3	0	0	0	0	406	603	563	486	
4	0	0	0	0	398	603	563	486	
5	0	0	0	0	399	603	563	486	
6	0	0	0	0	414	603	562	487	
7	0	0	0	0	405	603	563	486	
8	0	0	0	0	383	603	562	486	
9	0	0	0	0	413	604	563	486	
10	0	0	0	0	481	604	562	486	
11	0	0	0	0	529	603	563	485	
12	0	0	0	0	566	604	563	486	
13	0	0	0	0	604	604	562	486	
14	0	0	0	0	615	604	561	486	
15	0	0	0	0	604	604	561	486	
0	0	0	0	0	611	604	561	486	
1	0	0	0	0	663	604	562	486	
2	0	0	0	0	686	604	562	485	
3	0	0	0	0	610	604	561	485	
4	0	0	0	0	526	604	563	486	
5	0	0	0	0	474	604	562	485	
6	0	0	0	0	432	604	562	486	
7	0	0	0	0	409	605	562	485	
8	0	0	0	0	399	604	561	485	
9	0	0	0	0	402	604	562	485	
10	0	0	0	0	416	604	562	484	
11	0	0	0	0	406	604	562	485	
12	0	0	0	0	388	604	562	485	
13	0	0	0	0	413	604	561	484	
14	0	0	0	0	483	605	562	486	
15	0	0	0	0	531	605	562	485	
0	0	0	0	0	569	605	561	485	
1	0	0	0	0	592	605	562	485	
2	0	0	0	0	597	605	562	484	
3	0	0	0	0	602	605	562	485	
4	0	0	0	0	602	605	561	484	
5	0	0	0	0	649	605	561	485	
6	0	0	0	0	659	605	561	485	
7	0	0	0	0	596	605	560	485	
8	0	0	0	0	519	605	561	484	
9	0	0	0	0	468	606	561	485	
10	0	0	0	0	444	606	561	484	
11	0	0	0	0	423	606	561	485	
12	0	0	0	0	414	606	561	485	
13	0	0	0	0	400	605	561	486	
14	0	0	0	0	415	606	560	486	
15	0	0	0	0	426	605	561	484	
0	0	0	0	0	408	606	562	486	
1	0	0	0	0	423	606	561	485	
2	0	0	0	0	491	605	561	486	
3	0	0	0	0	540	606	562	486	
4	0	0	0	0	574	606	561	486	
5	0	0	0	0	590	606	562	486	
6	0	0	0	0	592	606	562	486	
7	0	0	0	0	596	606	562	486	
8	0	0	0	0	595	606	561	486	
9	0	0	0	0	642	605	562	485	
10	0	0	0	0	672	605	562	486	
11	0	0	0	0	607	606	561	485	
12	0	0	0	0	527	606	562	486	
13	0	0	0	0	473	606	562	486	
14	0	0	0	0	432	606	562	486	
15	0	0	0	0	411	606	561	486	
0	0	0	0	0	406	606	562	485	
1	0	0	0	0	406	606	562	486	
2	0	0	0	0	414	606	562	486	
3	0	0	0	0	403	606	563	487	
4	0	0	0	0	379	607	563	487	
5	0	0	0	0	410	606	562	486	
6	0	0	0	0	479	606	562	487	
7	0	0	0	0	532	606	562	486	
8	0	0	0	0	570	606	562	486	
9	0	0	0	0	600	606	562	486	
10	0	0	0	0	611	605	562	486	
11	0	0	0	0	607	606	563	486	
12	0	0	0	0	604	606	562	486	
13	0	0	0	0	638	605	561	486	
14	0	0	0	0	670	605	562	487	
15	0	0	0	0	618	606	562	486	
0	0	0	0	0	536	606	561	487	
1	0	0	0	0	482	605	563	487	
2	0	0	0	0	433	606	563	486	
3	0	0	0	0	405	606	563	486	
4	0	0	0	0	403	606	563	487	
5	0	0	0	0	414	605	563	487	
6	0	0	0	0	427	605	563	487	
7	0	0	0	0	402	606	562	487	
8	0	0	0	0	385	606	563	487	
9	0	0	0	0	412	605	563	487	
10	0	0	0	0	481	605	563	487	
11	0	0	0	0	532	606	563	486	
12	0	0	0	0	574	606	563	487	
13	0	0	0	0	597	606	563	487	
14	0	0	0	0	600	605	563	487	
15	0	0	0	0	608	605	562	487	
0	0	0	0	0	604	605	563	487	
1	0	0	0	0	637	605	563	487	
2	0	0	0	0	654	605	562	487	
3	0	0	0	0	598	605	562	487	
4	0	0	0	0	527	605	563	487	
5	0	0	0	0	479	605	563	487	
6	0	0	0	0	433	605	563	487	
7	0	0	0	0	409	604	562	487	
8	0	0	0	0	401	605	562	487	
9	0	0	0	0	401	605	563	487	
10	0	0	0	0	411	604	563	486	
11	0	0	0	0	398	604	563	487	
12	0	0	0	0	388	604	563	487	
13	0	0	0	0	414	604	562	487	
14	0	0	0	0	482	604	563	488	
15	0	0	0	0	536	604	563	487	
0	0	0	0	0	571	605	563	488	
1	0	0	0	0	589	604	562	488	
2	0	0	0	0	593	603	563	487	
3	0	0	0	0	617	603	563	487	
4	0	0	0	0	613	604	563	487	
5	0	0	0	0	641	604	563	488	
6	0	0	0	0	671	604	562	488	
7	0	0	0	0	609	604	562	487	
8	0	0	0	0	531	604	563	487	
9	0	0	0	0	481	604	563	487	
10	0	0	0	0	436	604	563	487	
11	0	0	0	0	412	604	563	487	
12	0	0	0	0	407	604	563	488	
13	0	0	0	0	408	604	562	488	
14	0	0	0	0	415	604	562	489	
15	0	0	0	0	403	603	563	487	
0	0	0	0	0	390	604	563	487	
1	0	0	0	0	420	604	563	488	
2	0	0	0	0	487	603	563	487	
3	0	0	0	0	533	604	563	488	
4	0	0	0	0	576	603	563	488	
5	0	0	0	0	594	603	563	488	
6	0	0	0	0	595	603	562	488	
7	0	0	0	0	598	603	563	487	
8	0	0	0	0	615	603	563	487	
9	0	0	0	0	642	603	563	487	
10	0	0	0	0	656	603	563	487	
11	0	0	0	0	604	603	563	488	
12	0	0	0	0	543	603	563	488	
13	0	0	0	0	483	603	563	488	
14	0	0	0	0	432	603	563	488	
15	0	0	0	0	408	602	563	488	
0	0	0	0	0	414	604	563	488	
1	0	0	0	0	405	603	564	488	
2	0	0	0	0	410	603	563	489	
3	0	0	0	0	397	603	563	489	
4	0	0	0	0	382	603	563	488	
5	0	0	0	0	417	603	562	489	
6	0	0	0	0	480	603	563	489	
7	0	0	0	0	540	603	563	489	
8	0	0	0	0	588	603	563	489	
9	0	0	0	0	604	603	562	488	
10	0	0	0	0	608	603	562	487	
11	0	0	0	0	609	603	563	488	
12	0	0	0	0	602	603	563	488	
13	0	0	0	0	640	603	563	488	
14	0	0	0	0	660	603	563	489	
15	0	0	0	0	599	603	562	487	
0	0	0	0	0	518	604	563	488	
1	0	0	0	0	464	603	563	488	
2	0	0	0	0	427	603	563	487	
3	0	0	0	0	414	603	563	488	
4	0	0	0	0	409	603	563	488	
5	0	0	0	0	406	603	563	488	
6	0	0	0	0	420	603	563	488	
7	0	0	0	0	420	603	563	488	
8	0	0	0	0	409	603	563	487	
9	0	0	0	0	419	603	563	488	
10	0	0	0	0	482	603	563	488	
11	0	0	0	0	526	604	563	488	
12	0	0	0	0	564	603	563	488	
13	0	0	0	0	592	603	563	488	
14	0	0	0	0	612	603	563	488	
15	0	0	0	0	620	603	563	488	
0	0	0	0	0	610	603	563	488	
1	0	0	0	0	629	603	563	488	
2	0	0	0	0	651	603	563	487	
3	0	0	0	0	601	604	563	487	
4	0	0	0	0	532	604	563	488	
5	0	0	0	0	482	603	563	488	
6	0	0	0	0	448	604	563	489	
7	0	0	0	0	422	603	563	488	
8	0	0	0	0	399	604	563	487	
9	0	0	0	0	400	604	563	488	
10	0	0	0	0	411	603	562	487	
11	0	0	0	0	401	604	563	487	
12	0	0	0	0	386	603	562	488	
13	0	0	0	0	417	604	563	487	
14	0	0	0	0	484	604	563	488	
15	0	0	0	0	529	604	563	487	
0	0	0	0	0	572	604	563	487	
1	0	0	0	0	595	604	563	487	
2	0	0	0	0	604	603	562	487	
3	0	0	0	0	609	604	563	488	
4	0	0	0	0	598	604	563	487	
5	0	0	0	0	635	604	563	487	
6	0	0	0	0	665	603	563	488	
7	0	0	0	0	607	604	563	487	
8	0	0	0	0	534	604	563	488	
9	0	0	0	0	477	604	563	487	
10	0	0	0	0	429	604	563	487	
11	0	0	0	0	409	604	563	487	
12	0	0	0	0	404	604	563	487	
13	0	0	0	0	408	604	564	487	
14	0	0	0	0	421	604	563	488	
15	0	0	0	0	406	604	563	487	
0	0	0	0	0	385	604	563	487	
1	0	0	0	0	417	604	563	487	
2	0	0	0	0	489	605	563	487	
3	0	0	0	0	542	604	563	487	
4	0	0	0	0	581	605	563	487	
5	0	0	0	0	599	604	563	487	
6	0	0	0	0	609	604	563	487	
7	0	0	0	0	611	604	563	487	
8	0	0	0	0	596	605	563	488	
9	0	0	0	0	639	604	563	487	
10	0	0	0	0	662	605	563	487	
11	0	0	0	0	602	605	563	487	
12	0	0	0	0	527	605	562	487	
13	0	0	0	0	476	604	564	487	
14	0	0	0	0	435	604	563	487	
15	0	0	0	0	409	604	563	487	
0	0	0	0	0	395	604	563	486	
1	0	0	0	0	391	605	564	487	
2	0	0	0	0	405	604	564	487	
3	0	0	0	0	395	604	563	487	
4	0	0	0	0	386	604	563	487	
5	0	0	0	0	440	604	563	487	
6	0	0	0	0	509	604	563	487	
7	0	0	0	0	550	604	563	486	
8	0	0	0	0	582	604	563	487	
9	0	0	0	0	602	604	563	486	
10	0	0	0	0	614	604	563	487	
11	0	0	0	0	609	604	563	487	
12	0	0	0	0	593	605	563	486	
13	0	0	0	0	627	604	563	486	
14	0	0	0	0	650	604	563	487	
15	0	0	0	0	602	604	563	486	
0	0	0	0	0	530	605	563	487	
1	0	0	0	0	473	604	563	487	
2	0	0	0	0	423	604	563	486	
3	0	0	0	0	405	605	563	487	
4	0	0	0	0	409	605	563	487	
5	0	0	0	0	412	606	563	487	
6	0	0	0	0	422	604	564	487	
7	0	0	0	0	403	605	563	487	
8	0	0	0	0	387	605	563	486	
9	0	0	0	0	419	604	563	487	
10	0	0	0	0	493	606	563	487	
11	0	0	0	0	545	604	564	487	
12	0	0	0	0	585	605	564	487	
13	0	0	0	0	605	604	563	487	
14	0	0	0	0	617	604	563	487	
15	0	0	0	0	629	604	563	487	
0	0	0	0	0	619	604	563	487	
1	0	0	0	0	641	604	563	487	
2	0	0	0	0	656	604	564	487	
3	0	0	0	0	601	604	563	487	
4	0	0	0	0	511	604	564	487	
5	0	0	0	0	448	604	563	487	
6	0	0	0	0	421	604	564	488	
7	0	0	0	0	408	604	564	487	
8	0	0	0	0	403	604	563	488	
9	0	0	0	0	395	604	564	488	
10	0	0	0	0	404	604	563	488	
11	0	0	0	0	402	604	564	488	
12	0	0	0	0	348	604	564	488	
13	0	0	0	0	365	603	564	488	
14	0	0	0	0	482	603	564	490	
15	0	0	0	0	555	603	563	489	
0	0	0	0	0	594	602	564	489	
1	0	0	0	0	622	602	564	489	
2	0	0	0	0	624	603	564	489	
3	0	0	0	0	637	603	564	489	
4	0	0	0	0	657	602	564	488	
5	0	0	0	0	723	602	564	489	
6	0	0	0	0	732	603	564	489	
7	0	0	0	0	652	603	564	488	
8	0	0	0	0	543	603	564	489	
9	0	0	0	0	485	602	564	488	
10	0	0	0	0	418	603	564	487	
11	0	0	0	0	379	603	564	488	
12	0	0	0	0	358	603	565	489	
13	0	0	0	0	287	602	565	489	
14	0	0	0	0	281	602	565	490	
15	0	0	0	0	310	603	565	489	
0	0	0	0	0	347	603	566	489	
1	0	0	0	0	404	602	566	489	
2	0	0	0	0	484	601	566	488	
3	0	0	0	0	544	602	567	489	
4	0	0	0	0	612	602	566	489	
5	0	0	0	0	656	602	566	489	
6	0	0	0	0	664	603	565	489	
7	0	0	0	0	633	604	566	488	
8	0	0	0	0	607	604	565	488	
9	0	0	0	0	647	604	564	487	
10	0	0	0	0	679	604	566	487	
11	0	0	0	0	629	604	564	487	
12	0	0	0	0	539	606	564	486	
13	0	0	0	0	469	605	564	485	
14	0	0	0	0	431	606	563	483	
15	0	0	0	0	391	606	563	482	
0	0	0	0	0	385	605	564	480	
1	0	0	0	0	402	606	563	479	
2	0	0	0	0	419	606	562	478	
3	0	0	0	0	412	606	560	478	
4	0	0	0	0	400	607	560	477	
5	0	0	0	0	429	607	560	478	
6	0	0	0	0	482	607	560	479	
7	0	0	0	0	517	607	560	479	
8	0	0	0	0	569	607	559	480	
9	0	0	0	0	586	607	560	480	
10	0	0	0	0	577	607	561	480	
11	0	0	0	0	579	607	561	480	
12	0	0	0	0	577	605	561	480	
13	0	0	0	0	654	605	559	482	
14	0	0	0	0	684	606	560	482	
15	0	0	0	0	621	606	563	481	
0	0	0	0	0	558	606	563	481	
1	0	0	0	0	512	606	563	481	
2	0	0	0	0	462	606	564	480	
3	0	0	0	0	420	607	563	481	
4	0	0	0	0	410	607	563	480	
5	0	0	0	0	417	608	563	481	
6	0	0	0	0	439	607	561	481	
7	0	0	0	0	419	608	563	480	
8	0	0	0	0	391	608	563	480	
9	0	0	0	0	415	607	564	479	
10	0	0	0	0	455	607	563	480	
11	0	0	0	0	519	608	563	481	
12	0	0	0	0	582	608	563	482	
13	0	0	0	0	591	608	563	481	
14	0	0	0	0	592	608	562	482	
15	0	0	0	0	605	609	563	482	
0	0	0	0	0	609	609	563	482	
1	0	0	0	0	628	610	562	483	
2	0	0	0	0	649	610	562	482	
3	0	0	0	0	603	611	562	483	
4	0	0	0	0	534	611	561	483	
5	0	0	0	0	454	612	561	483	
6	0	0	0	0	396	612	561	484	
7	0	0	0	0	391	613	561	483	
8	0	0	0	0	394	613	561	483	
9	0	0	0	0	423	613	561	483	
10	0	0	0	0	447	614	561	483	
11	0	0	0	0	419	614	562	484	
12	0	0	0	0	381	615	563	483	
13	0	0	0	0	427	614	563	483	
14	0	0	0	0	494	614	563	486	
15	0	0	0	0	557	613	563	485	
0	0	0	0	0	585	612	564	486	
1	0	0	0	0	603	612	563	486	
2	0	0	0	0	611	611	565	486	
3	0	0	0	0	604	611	564	486	
4	0	0	0	0	602	611	564	486	
5	0	0	0	0	641	611	564	485	
6	0	0	0	0	653	610	563	486	
7	0	0	0	0	600	610	563	485	
8	0	0	0	0	520	610	563	484	
9	0	0	0	0	510	610	563	483	
10	0	0	0	0	444	611	563	483	
11	0	0	0	0	399	612	563	483	
12	0	0	0	0	391	612	562	482	
13	0	0	0	0	388	614	562	482	
14	0	0	0	0	424	614	561	483	
15	0	0	0	0	417	614	560	482	
0	0	0	0	0	400	614	561	483	
1	0	0	0	0	412	613	560	483	
2	0	0	0	0	470	612	560	484	
3	0	0	0	0	501	611	561	484	
4	0	0	0	0	521	610	561	484	
5	0	0	0	0	561	610	562	484	
6	0	0	0	0	630	609	562	485	
7	0	0	0	0	663	608	562	484	
8	0	0	0	0	672	607	562	482	
9	0	0	0	0	656	606	561	484	
10	0	0	0	0	655	606	563	483	
11	0	0	0	0	593	605	563	484	
12	0	0	0	0	518	603	563	484	
13	0	0	0	0	458	602	563	484	
14	0	0	0	0	438	601	563	485	
15	0	0	0	0	418	601	563	485	
0	0	0	0	0	437	600	562	486	
1	0	0	0	0	439	600	563	487	
2	0	0	0	0	401	598	562	487	
3	0	0	0	0	371	598	562	488	
4	0	0	0	0	319	598	562	490	
5	0	0	0	0	367	598	563	490	
6	0	0	0	0	472	597	562	493	
7	0	0	0	0	583	586	536	511	
8	0	0	0	0	584	597	565	490	
9	0	0	0	0	581	598	574	491	
10	0	0	0	0	640	597	574	487	
11	0	0	0	0	652	597	572	490	
12	0	0	0	0	578	595	569	492	
13	0	0	0	0	608	592	569	493	
14	0	0	0	0	648	591	568	495	
15	0	0	0	0	589	590	567	495	
0	0	0	0	0	551	589	568	496	
1	0	0	0	0	564	588	568	496	
2	0	0	0	0	413	588	568	498	
3	0	0	0	0	516	588	569	498	
4	0	0	0	0	424	587	569	497	
5	0	0	0	0	380	588	569	498	
6	0	0	0	0	401	588	569	500	
7	0	0	0	0	358	589	570	501	
8	0	0	0	0	285	590	570	501	
9	0	0	0	0	351	590	569	502	
10	0	0	0	0	557	591	570	503	
11	0	0	0	0	628	591	570	504	
12	0	0	0	0	737	592	570	504	
13	0	0	0	0	710	593	571	504	
14	0	0	0	0	684	592	570	504	
15	0	0	0	0	585	593	570	504	
0	0	0	0	0	604	593	570	505	
1	0	0	0	0	647	593	571	505	
2	0	0	0	0	642	593	570	505	
3	0	0	0	0	524	592	570	505	
4	0	0	0	0	412	592	569	506	
5	0	0	0	0	444	592	570	506	
6	0	0	0	0	332	591	571	507	
7	0	0	0	0	219	590	569	506	
8	0	0	0	0	270	589	568	505	
9	0	0	0	0	208	588	565	507	
10	0	0	0	0	438	570	529	542	
11	0	0	0	0	506	593	560	505	
12	0	0	0	0	662	594	586	495	
13	0	0	0	0	625	595	588	489	
14	0	0	0	0	501	593	583	492	
15	0	0	0	0	404	593	577	497	
0	0	0	0	0	517	593	574	500	
1	0	0	0	0	612	592	572	501	
2	0	0	0	0	896	592	572	500	
3	0	0	0	0	743	593	572	501	
4	0	0	0	0	678	594	572	499	
5	0	0	0	0	712	595	572	497	
6	0	0	0	0	529	594	572	494	
7	0	0	0	0	436	596	570	488	
8	0	0	0	0	829	599	568	483	
9	0	0	0	0	891	603	564	475	
10	0	0	0	0	451	610	561	468	
11	0	0	0	0	231	616	558	465	
12	0	0	0	0	9	618	553	468	
13	0	0	0	0	48	618	553	478	
14	0	0	0	0	42	615	551	490	
15	0	0	0	0	126	610	550	497	
0	0	0	0	0	455	606	551	500	
1	0	0	0	0	620	603	551	497	
2	0	0	0	0	488	603	550	494	
3	0	0	0	0	660	603	542	496	
4	0	0	0	0	641	612	551	484	
5	0	0	0	0	685	619	553	483	
6	0	0	0	0	778	624	552	481	
7	0	0	0	0	574	629	553	479	
8	0	0	0	0	315	630	552	476	
9	0	0	0	0	269	630	555	468	
10	0	0	0	0	601	630	560	460	
11	0	0	0	0	767	631	563	451	
12	0	0	0	0	588	632	563	446	
13	0	0	0	0	565	623	549	465	
14	0	0	0	0	473	636	575	433	
15	0	0	0	0	414	632	577	431	
0	0	0	0	0	555	627	576	430	
1	0	0	0	0	754	621	573	438	
2	0	0	0	0	624	613	571	445	
3	0	0	0	0	872	603	570	451	
4	0	0	0	0	663	595	568	461	
5	0	0	0	0	346	587	566	472	
6	0	0	0	0	244	580	563	483	
7	0	0	0	0	338	574	561	493	
8	0	0	0	0	538	569	560	501	
9	0	0	0	0	409	566	560	508	
10	0	0	0	0	438	561	559	514	
11	0	0	0	0	515	558	560	518	
12	0	0	0	0	419	554	560	519	
13	0	0	0	0	432	551	561	519	
14	0	0	0	0	591	549	562	520	
15	0	0	0	0	460	548	562	520	
0	0	0	0	0	471	548	562	521	
1	0	0	0	0	473	551	562	522	
2	0	0	0	0	414	556	563	522	
3	0	0	0	0	394	562	564	523	
4	0	0	0	0	387	571	566	523	
5	0	0	0	0	397	580	566	522	
6	0	0	0	0	425	590	566	521	
7	0	0	0	0	465	600	566	521	
8	0	0	0	0	478	610	566	519	
9	0	0	0	0	524	619	567	519	
10	0	0	0	0	602	628	568	518	
11	0	0	0	0	601	634	568	518	
12	0	0	0	0	564	639	569	517	
13	0	0	0	0	591	643	570	516	
14	0	0	0	0	568	645	569	516	
15	0	0	0	0	581	647	570	517	
0	0	0	0	0	579	647	571	517	
1	0	0	0	0	699	645	571	517	
2	0	0	0	0	852	642	571	518	
3	0	0	0	0	711	640	572	519	
4	0	0	0	0	599	638	571	519	
5	0	0	0	0	564	636	570	517	
6	0	0	0	0	486	635	570	517	
7	0	0	0	0	427	633	570	515	
8	0	0	0	0	302	632	568	518	
9	0	0	0	0	331	631	566	517	
10	0	0	0	0	334	630	566	514	
11	0	0	0	0	314	630	565	512	
12	0	0	0	0	321	629	566	510	
13	0	0	0	0	337	627	566	509	
14	0	0	0	0	435	626	565	509	
15	0	0	0	0	539	624	565	508	
0	0	0	0	0	612	623	564	508	
1	0	0	0	0	660	622	563	507	
2	0	0	0	0	661	622	564	504	
3	0	0	0	0	647	621	563	504	
4	0	0	0	0	624	620	563	502	
5	0	0	0	0	620	620	562	502	
6	0	0	0	0	626	620	562	499	
7	0	0	0	0	588	619	562	497	
8	0	0	0	0	535	618	562	496	
9	0	0	0	0	492	617	563	497	
10	0	0	0	0	448	615	564	496	
11	0	0	0	0	418	615	567	506	
12	0	0	0	0	402	611	572	519	
13	0	0	0	0	404	600	581	510	
14	0	0	0	0	425	587	589	504	
15	0	0	0	0	412	574	594	501	
0	0	0	0	0	395	556	597	512	
1	0	0	0	0	425	535	600	541	
2	0	0	0	0	485	514	604	578	
3	0	0	0	0	545	494	612	616	
4	0	0	0	0	582	476	619	654	
5	0	0	0	0	601	462	626	689	
6	0	0	0	0	619	446	637	711	
7	0	0	0	0	619	439	652	725	
8	0	0	0	0	611	451	671	751	
9	0	0	0	0	649	487	698	777	
10	0	0	0	0	651	503	742	783	
11	0	0	0	0	592	484	744	714	
12	0	0	0	0	536	550	708	657	
13	0	0	0	0	463	635	659	542	
14	0	0	0	0	390	719	620	480	
15	0	0	0	0	336	782	565	463	
0	0	0	0	0	344	827	516	456	
1	0	0	0	0	379	861	488	448	
2	0	0	0	0	421	895	476	448	
3	0	0	0	0	419	1018	479	467	
4	0	0	0	0	405	1020	481	466	
5	0	0	0	0	444	1020	487	451	
6	0	0	0	0	526	1020	483	427	
7	0	0	0	0	595	1020	459	403	
8	0	0	0	0	644	1020	455	372	
9	0	0	0	0	641	1020	459	348	
10	0	0	0	0	593	1020	465	327	
11	0	0	0	0	577	1020	474	312	
12	0	0	0	0	532	1019	479	303	
13	0	0	0	0	546	837	483	295	
14	0	0	0	0	599	804	485	288	
15	0	0	0	0	573	765	487	281	
0	0	0	0	0	517	723	492	282	
1	0	0	0	0	455	678	500	282	
2	0	0	0	0	430	632	509	285	
3	0	0	0	0	424	588	516	294	
4	0	0	0	0	424	549	522	304	
5	0	0	0	0	433	513	530	313	
6	0	0	0	0	457	483	537	324	
7	0	0	0	0	446	459	543	332	
8	0	0	0	0	384	440	548	339	
9	0	0	0	0	384	427	550	343	
10	0	0	0	0	459	418	551	343	
11	0	0	0	0	524	412	550	345	
12	0	0	0	0	570	409	550	345	
13	0	0	0	0	591	407	549	346	
14	0	0	0	0	599	405	549	351	
15	0	0	0	0	616	405	550	355	
0	0	0	0	0	621	407	548	361	
1	0	0	0	0	666	408	547	371	
2	0	0	0	0	703	410	545	378	
3	0	0	0	0	639	414	545	387	
4	0	0	0	0	585	418	544	396	
5	0	0	0	0	527	423	543	403	
6	0	0	0	0	441	428	543	409	
7	0	0	0	0	421	431	544	415	
8	0	0	0	0	374	435	546	420	
9	0	0	0	0	350	439	548	426	
10	0	0	0	0	390	442	551	430	
11	0	0	0	0	394	446	556	433	
12	0	0	0	0	383	449	560	438	
13	0	0	0	0	413	452	563	443	
14	0	0	0	0	481	457	566	448	
15	0	0	0	0	533	465	569	451	
0	0	0	0	0	572	475	574	455	
1	0	0	0	0	589	484	579	457	
2	0	0	0	0	615	494	582	460	
3	0	0	0	0	626	505	585	464	
4	0	0	0	0	607	516	587	467	
5	0	0	0	0	643	527	588	471	
6	0	0	0	0	671	539	588	475	
7	0	0	0	0	612	551	588	477	
8	0	0	0	0	536	563	587	480	
9	0	0	0	0	466	575	586	483	
10	0	0	0	0	408	587	583	484	
11	0	0	0	0	375	597	581	487	
12	0	0	0	0	384	607	579	490	
13	0	0	0	0	411	615	576	492	
14	0	0	0	0	416	624	574	496	
15	0	0	0	0	400	632	571	498	
0	0	0	0	0	387	639	569	500	
1	0	0	0	0	420	643	568	500	
2	0	0	0	0	507	647	569	502	
3	0	0	0	0	619	648	568	504	
4	0	0	0	0	678	650	567	505	
5	0	0	0	0	634	651	567	509	
6	0	0	0	0	592	650	567	511	
7	0	0	0	0	562	649	568	513	
8	0	0	0	0	531	647	569	515	
9	0	0	0	0	580	646	570	517	
10	0	0	0	0	631	643	571	519	
11	0	0	0	0	579	640	571	520	
12	0	0	0	0	520	638	574	523	
13	0	0	0	0	482	635	573	523	
14	0	0	0	0	428	632	574	526	
15	0	0	0	0	408	629	576	527	
0	0	0	0	0	405	627	576	528	
1	0	0	0	0	442	625	577	529	
2	0	0	0	0	439	623	578	529	
3	0	0	0	0	403	621	579	529	
4	0	0	0	0	379	619	579	529	
5	0	0	0	0	410	617	580	528	
6	0	0	0	0	495	615	581	528	
7	0	0	0	0	542	614	580	527	
8	0	0	0	0	585	611	580	527	
9	0	0	0	0	598	610	581	526	
10	0	0	0	0	588	608	580	524	
11	0	0	0	0	583	606	582	524	
12	0	0	0	0	599	604	581	523	
13	0	0	0	0	639	603	580	521	
14	0	0	0	0	675	602	580	521	
15	0	0	0	0	613	601	579	518	
0	0	0	0	0	542	601	579	517	
1	0	0	0	0	496	601	578	515	
2	0	0	0	0	443	601	577	512	
3	0	0	0	0	408	602	576	510	
4	0	0	0	0	396	602	575	509	
5	0	0	0	0	400	603	574	507	
6	0	0	0	0	396	604	573	506	
7	0	0	0	0	393	605	572	504	
8	0	0	0	0	385	605	572	503	
9	0	0	0	0	428	606	571	502	
10	0	0	0	0	500	606	570	499	
11	0	0	0	0	545	605	569	497	
12	0	0	0	0	585	605	568	496	
13	0	0	0	0	602	604	568	494	
14	0	0	0	0	608	603	568	493	
15	0	0	0	0	609	601	567	492	
0	0	0	0	0	608	600	566	490	
1	0	0	0	0	652	598	566	489	
2	0	0	0	0	683	597	566	487	
3	0	0	0	0	626	596	566	487	
4	0	0	0	0	534	596	564	486	
5	0	0	0	0	434	593	565	486	
6	0	0	0	0	410	593	565	485	
7	0	0	0	0	420	593	565	484	
8	0	0	0	0	428	592	566	483	
9	0	0	0	0	417	592	564	482	
10	0	0	0	0	399	592	565	481	
11	0	0	0	0	368	593	565	481	
12	0	0	0	0	340	593	564	480	
13	0	0	0	0	390	593	563	480	
14	0	0	0	0	473	595	564	481	
15	0	0	0	0	535	595	564	481	
0	0	0	0	0	582	597	563	481	
1	0	0	0	0	601	598	564	482	
2	0	0	0	0	614	598	563	480	
3	0	0	0	0	622	600	563	481	
4	0	0	0	0	606	600	562	479	
5	0	0	0	0	639	603	562	478	
6	0	0	0	0	673	604	562	478	
7	0	0	0	0	610	606	563	478	
8	0	0	0	0	535	608	564	478	
9	0	0	0	0	486	610	564	478	
10	0	0	0	0	444	611	564	479	
11	0	0	0	0	419	612	565	480	
12	0	0	0	0	405	613	565	481	
13	0	0	0	0	407	615	565	481	
14	0	0	0	0	420	614	566	483	
15	0	0	0	0	407	615	565	482	
0	0	0	0	0	399	615	565	483	
1	0	0	0	0	428	615	565	483	
2	0	0	0	0	494	615	565	485	
3	0	0	0	0	527	615	565	485	
4	0	0	0	0	546	615	565	486	
5	0	0	0	0	584	615	565	486	
6	0	0	0	0	603	615	564	487	
7	0	0	0	0	617	615	566	487	
8	0	0	0	0	608	615	566	489	
9	0	0	0	0	631	615	567	489	
10	0	0	0	0	654	615	567	489	
11	0	0	0	0	593	615	567	490	
12	0	0	0	0	523	615	568	491	
13	0	0	0	0	468	615	568	491	
14	0	0	0	0	434	616	568	492	
15	0	0	0	0	414	616	569	492	
0	0	0	0	0	403	616	568	493	
1	0	0	0	0	411	616	568	494	
2	0	0	0	0	418	617	568	495	
3	0	0	0	0	398	617	569	495	
4	0	0	0	0	382	617	568	495	
5	0	0	0	0	414	618	567	495	
6	0	0	0	0	490	618	568	496	
7	0	0	0	0	548	619	568	495	
8	0	0	0	0	588	619	567	494	
9	0	0	0	0	604	620	567	495	
10	0	0	0	0	611	620	566	494	
11	0	0	0	0	614	621	566	495	
12	0	0	0	0	612	620	566	495	
13	0	0	0	0	650	621	564	495	
14	0	0	0	0	660	621	565	496	
15	0	0	0	0	599	621	564	495	
0	0	0	0	0	540	621	564	496	
1	0	0	0	0	485	620	564	495	
2	0	0	0	0	429	620	563	494	
3	0	0	0	0	405	620	564	495	
4	0	0	0	0	400	619	563	495	
5	0	0	0	0	399	618	563	495	
6	0	0	0	0	404	617	563	495	
7	0	0	0	0	395	617	563	495	
8	0	0	0	0	379	616	563	495	
9	0	0	0	0	411	615	563	495	
10	0	0	0	0	492	614	563	495	
11	0	0	0	0	541	614	562	494	
12	0	0	0	0	567	613	562	494	
13	0	0	0	0	593	612	562	494	
14	0	0	0	0	620	611	562	495	
15	0	0	0	0	623	610	563	495	
0	0	0	0	0	615	609	562	495	
1	0	0	0	0	649	609	562	495	
2	0	0	0	0	665	608	562	494	
3	0	0	0	0	609	608	562	495	
4	0	0	0	0	536	608	562	494	
5	0	0	0	0	484	608	562	494	
6	0	0	0	0	433	609	562	493	
7	0	0	0	0	394	609	562	492	
8	0	0	0	0	383	609	562	492	
9	0	0	0	0	396	609	561	491	
10	0	0	0	0	414	609	562	491	
11	0	0	0	0	404	609	562	490	
12	0	0	0	0	389	608	561	491	
13	0	0	0	0	419	608	561	491	
14	0	0	0	0	487	608	561	490	
15	0	0	0	0	528	608	561	489	
0	0	0	0	0	578	607	562	489	
1	0	0	0	0	596	607	561	489	
2	0	0	0	0	596	607	561	487	
3	0	0	0	0	611	606	561	487	
4	0	0	0	0	620	606	560	487	
5	0	0	0	0	649	605	561	487	
6	0	0	0	0	664	605	560	487	
7	0	0	0	0	607	604	560	487	
8	0	0	0	0	532	604	560	486	
9	0	0	0	0	476	604	560	485	
10	0	0	0	0	431	603	561	484	
11	0	0	0	0	409	603	560	484	
12	0	0	0	0	408	602	560	484	
13	0	0	0	0	404	600	561	483	
14	0	0	0	0	407	600	560	484	
15	0	0	0	0	385	600	560	484	
0	0	0	0	0	371	599	561	483	
1	0	0	0	0	417	598	560	484	
2	0	0	0	0	508	598	561	483	
3	0	0	0	0	572	597	561	483	
4	0	0	0	0	598	597	561	483	
5	0	0	0	0	593	598	562	483	
6	0	0	0	0	585	598	561	483	
7	0	0	0	0	596	598	562	484	
8	0	0	0	0	598	597	563	483	
9	0	0	0	0	640	597	562	483	
10	0	0	0	0	671	598	563	483	
11	0	0	0	0	625	598	563	483	
12	0	0	0	0	550	598	563	483	
13	0	0	0	0	492	598	563	484	
14	0	0	0	0	435	597	564	484	
15	0	0	0	0	379	597	564	483	
0	0	0	0	0	357	597	564	483	
1	0	0	0	0	367	596	565	485	
2	0	0	0	0	393	596	564	484	
3	0	0	0	0	390	595	565	485	
4	0	0	0	0	391	595	565	486	
5	0	0	0	0	421	595	565	487	
6	0	0	0	0	490	595	565	487	
7	0	0	0	0	547	595	566	486	
8	0	0	0	0	598	595	565	486	
9	0	0	0	0	600	593	566	486	
10	0	0	0	0	611	594	566	486	
11	0	0	0	0	623	594	567	487	
12	0	0	0	0	611	594	565	488	
13	0	0	0	0	652	595	566	489	
14	0	0	0	0	670	596	566	489	
15	0	0	0	0	615	596	567	490	
0	0	0	0	0	539	597	567	491	
1	0	0	0	0	451	598	567	491	
2	0	0	0	0	430	598	568	491	
3	0	0	0	0	426	599	568	491	
4	0	0	0	0	415	599	568	492	
5	0	0	0	0	377	599	569	492	
6	0	0	0	0	369	598	569	492	
7	0	0	0	0	380	598	570	492	
8	0	0	0	0	378	598	571	492	
9	0	0	0	0	416	598	571	491	
10	0	0	0	0	491	598	570	491	
11	0	0	0	0	550	598	571	491	
12	0	0	0	0	586	598	571	491	
13	0	0	0	0	606	597	570	491	
14	0	0	0	0	617	597	570	492	
15	0	0	0	0	623	597	570	491	
0	0	0	0	0	612	596	569	492	
1	0	0	0	0	639	595	569	492	
2	0	0	0	0	658	595	569	492	
3	0	0	0	0	606	594	569	492	
4	0	0	0	0	517	594	570	492	
5	0	0	0	0	456	594	569	493	
6	0	0	0	0	432	595	569	494	
7	0	0	0	0	411	595	569	493	
8	0	0	0	0	414	595	569	494	
9	0	0	0	0	423	596	569	494	
10	0	0	0	0	432	596	569	494	
11	0	0	0	0	424	597	569	494	
12	0	0	0	0	405	598	569	495	
13	0	0	0	0	408	598	569	495	
14	0	0	0	0	483	598	570	496	
15	0	0	0	0	540	599	569	495	
0	0	0	0	0	540	598	569	495	
1	0	0	0	0	557	599	569	495	
2	0	0	0	0	568	599	569	494	
3	0	0	0	0	590	600	569	495	
4	0	0	0	0	609	599	568	494	
5	0	0	0	0	656	600	569	494	
6	0	0	0	0	664	600	569	495	
7	0	0	0	0	602	600	568	493	
8	0	0	0	0	539	601	568	494	
9	0	0	0	0	504	601	568	493	
10	0	0	0	0	454	601	568	492	
11	0	0	0	0	448	602	567	492	
12	0	0	0	0	444	602	566	492	
13	0	0	0	0	402	602	567	492	
14	0	0	0	0	403	601	567	492	
15	0	0	0	0	409	601	567	491	
0	0	0	0	0	413	602	566	491	
1	0	0	0	0	440	601	566	491	
2	0	0	0	0	502	601	567	491	
3	0	0	0	0	540	601	566	491	
4	0	0	0	0	572	601	567	491	
5	0	0	0	0	586	601	566	491	
6	0	0	0	0	583	602	566	491	
7	0	0	0	0	560	601	566	491	
8	0	0	0	0	568	601	566	491	
9	0	0	0	0	621	601	566	491	
10	0	0	0	0	649	602	567	491	
11	0	0	0	0	581	601	566	491	
12	0	0	0	0	534	603	567	491	
13	0	0	0	0	475	602	566	490	
14	0	0	0	0	426	602	567	491	
15	0	0	0	0	396	602	566	489	
0	0	0	0	0	387	602	566	489	
1	0	0	0	0	401	602	565	489	
2	0	0	0	0	432	602	564	487	
3	0	0	0	0	415	601	564	488	
4	0	0	0	0	395	601	564	487	
5	0	0	0	0	419	601	564	487	
6	0	0	0	0	508	601	564	487	
7	0	0	0	0	566	602	564	486	
8	0	0	0	0	583	601	563	486	
9	0	0	0	0	596	603	564	487	
10	0	0	0	0	617	603	563	486	
11	0	0	0	0	616	604	563	486	
12	0	0	0	0	605	605	563	486	
13	0	0	0	0	642	606	563	486	
14	0	0	0	0	650	607	563	485	
15	0	0	0	0	584	607	563	484	
0	0	0	0	0	514	608	564	484	
1	0	0	0	0	473	608	564	484	
2	0	0	0	0	451	608	564	483	
3	0	0	0	0	437	609	566	483	
4	0	0	0	0	427	608	566	483	
5	0	0	0	0	403	609	566	483	
6	0	0	0	0	419	608	565	483	
7	0	0	0	0	421	608	565	483	
8	0	0	0	0	388	608	566	483	
9	0	0	0	0	420	608	565	483	
10	0	0	0	0	480	608	565	482	
11	0	0	0	0	476	608	565	482	
12	0	0	0	0	553	608	565	482	
13	0	0	0	0	592	608	565	482	
14	0	0	0	0	589	608	564	483	
15	0	0	0	0	581	609	565	482	
0	0	0	0	0	587	609	565	482	
1	0	0	0	0	631	610	564	483	
2	0	0	0	0	653	610	565	483	
3	0	0	0	0	609	610	564	483	
4	0	0	0	0	561	610	564	483	
5	0	0	0	0	524	610	564	484	
6	0	0	0	0	460	610	564	485	
7	0	0	0	0	415	610	563	485	
8	0	0	0	0	427	610	563	485	
9	0	0	0	0	435	609	564	486	
10	0	0	0	0	453	609	563	486	
11	0	0	0	0	408	609	564	487	
12	0	0	0	0	381	608	564	488	
13	0	0	0	0	412	608	564	489	
14	0	0	0	0	471	608	563	489	
15	0	0	0	0	518	607	564	489	
0	0	0	0	0	552	608	564	489	
1	0	0	0	0	563	608	564	490	
2	0	0	0	0	615	607	564	489	
3	0	0	0	0	632	607	564	490	
4	0	0	0	0	615	607	564	490	
5	0	0	0	0	648	607	563	491	
6	0	0	0	0	655	606	564	492	
7	0	0	0	0	591	606	564	491	
8	0	0	0	0	514	606	564	492	
9	0	0	0	0	482	606	564	491	
10	0	0	0	0	441	606	564	492	
11	0	0	0	0	417	606	565	492	
12	0	0	0	0	397	606	564	492	
13	0	0	0	0	398	606	565	491	
14	0	0	0	0	428	606	564	492	
15	0	0	0	0	393	606	564	492	
0	0	0	0	0	351	606	565	492	
1	0	0	0	0	407	606	564	492	
2	0	0	0	0	496	606	564	491	
3	0	0	0	0	519	606	564	492	
4	0	0	0	0	583	606	564	491	
5	0	0	0	0	583	606	564	491	
6	0	0	0	0	568	606	563	491	
7	0	0	0	0	597	606	564	491	
8	0	0	0	0	626	605	563	491	
9	0	0	0	0	646	605	564	491	
10	0	0	0	0	670	605	564	491	
11	0	0	0	0	654	605	564	492	
12	0	0	0	0	545	604	564	492	
13	0	0	0	0	517	604	564	492	
14	0	0	0	0	507	603	564	493	
15	0	0	0	0	406	604	565	493	
0	0	0	0	0	374	604	565	493	
1	0	0	0	0	410	604	565	493	
2	0	0	0	0	414	603	565	492	
3	0	0	0	0	387	603	564	492	
4	0	0	0	0	385	603	565	492	
5	0	0	0	0	410	604	565	492	
6	0	0	0	0	500	604	566	492	
7	0	0	0	0	531	603	565	491	
8	0	0	0	0	549	603	565	491	
9	0	0	0	0	560	603	565	491	
10	0	0	0	0	551	602	566	491	
11	0	0	0	0	558	602	566	491	
12	0	0	0	0	560	602	565	492	
13	0	0	0	0	675	601	566	491	
14	0	0	0	0	797	600	565	492	
15	0	0	0	0	627	600	566	492	
0	0	0	0	0	553	600	566	493	
1	0	0	0	0	507	599	566	493	
2	0	0	0	0	440	600	566	492	
3	0	0	0	0	408	600	566	493	
4	0	0	0	0	407	599	566	494	
5	0	0	0	0	372	599	566	494	
6	0	0	0	0	371	599	567	494	
7	0	0	0	0	336	599	566	493	
8	0	0	0	0	425	599	567	494	
9	0	0	0	0	548	599	566	494	
10	0	0	0	0	506	600	567	494	
11	0	0	0	0	508	599	567	493	
12	0	0	0	0	577	599	566	494	
13	0	0	0	0	592	599	567	494	
14	0	0	0	0	582	599	566	494	
15	0	0	0	0	574	599	568	494	
0	0	0	0	0	592	600	568	493	
1	0	0	0	0	668	600	567	492	
2	0	0	0	0	658	600	567	491	
3	0	0	0	0	547	600	567	492	
4	0	0	0	0	449	601	567	491	
5	0	0	0	0	391	601	567	490	
6	0	0	0	0	361	600	567	490	
7	0	0	0	0	485	601	567	489	
8	0	0	0	0	476	602	566	490	
9	0	0	0	0	630	602	567	491	
10	0	0	0	0	694	601	566	489	
11	0	0	0	0	536	600	566	491	
12	0	0	0	0	422	600	566	491	
13	0	0	0	0	400	600	566	491	
14	0	0	0	0	491	599	566	492	
15	0	0	0	0	465	599	567	491	
0	0	0	0	0	359	598	567	491	
1	0	0	0	0	422	596	567	490	
2	0	0	0	0	590	595	568	489	
3	0	0	0	0	578	595	568	489	
4	0	0	0	0	551	595	569	490	
5	0	0	0	0	526	594	569	489	
6	0	0	0	0	580	595	569	490	
7	0	0	0	0	497	595	570	488	
8	0	0	0	0	544	595	570	489	
9	0	0	0	0	530	595	569	488	
10	0	0	0	0	404	596	569	488	
11	0	0	0	0	319	596	569	488	
12	0	0	0	0	573	596	569	487	
13	0	0	0	0	728	596	569	486	
14	0	0	0	0	638	596	568	484	
15	0	0	0	0	605	598	566	477	
0	0	0	0	0	457	602	562	465	
1	0	0	0	0	421	608	558	454	
2	0	0	0	0	344	617	553	448	
3	0	0	0	0	392	625	550	453	
4	0	0	0	0	515	627	548	460	
5	0	0	0	0	363	623	547	472	
6	0	0	0	0	401	617	548	483	
7	0	0	0	0	627	609	549	490	
8	0	0	0	0	577	606	549	491	
9	0	0	0	0	627	605	548	489	
10	0	0	0	0	589	609	547	486	
11	0	0	0	0	568	613	546	483	
12	0	0	0	0	583	616	546	481	
13	0	0	0	0	608	619	546	481	
14	0	0	0	0	619	619	548	483	
15	0	0	0	0	649	619	551	483	
0	0	0	0	0	584	616	551	482	
1	0	0	0	0	631	614	553	481	
2	0	0	0	0	625	609	556	479	
3	0	0	0	0	408	604	559	477	
4	0	0	0	0	142	599	561	475	
5	0	0	0	0	86	594	563	473	
6	0	0	0	0	110	590	565	472	
7	0	0	0	0	192	587	564	472	
8	0	0	0	0	340	583	564	472	
9	0	0	0	0	432	582	566	472	
10	0	0	0	0	565	579	564	472	
11	0	0	0	0	603	577	564	473	
12	0	0	0	0	616	576	564	475	
13	0	0	0	0	728	576	564	476	
14	0	0	0	0	942	575	564	478	
15	0	0	0	0	790	575	565	479	
0	0	0	0	0	694	576	566	482	
1	0	0	0	0	739	577	566	485	
2	0	0	0	0	548	578	567	487	
3	0	0	0	0	332	580	568	492	
4	0	0	0	0	404	582	569	495	
5	0	0	0	0	376	583	571	499	
6	0	0	0	0	275	585	570	502	
7	0	0	0	0	194	587	573	508	
8	0	0	0	0	297	588	576	516	
9	0	0	0	0	450	589	579	513	
10	0	0	0	0	507	590	581	510	
11	0	0	0	0	524	590	583	510	
12	0	0	0	0	572	590	583	511	
13	0	0	0	0	599	589	584	511	
14	0	0	0	0	613	586	585	516	
15	0	0	0	0	591	585	586	524	
0	0	0	0	0	576	585	586	532	
1	0	0	0	0	665	588	587	540	
2	0	0	0	0	679	591	587	547	
3	0	0	0	0	576	594	587	552	
4	0	0	0	0	536	599	588	559	
5	0	0	0	0	463	601	589	567	
6	0	0	0	0	397	600	591	578	
7	0	0	0	0	339	596	595	590	
8	0	0	0	0	689	590	599	605	
9	0	0	0	0	625	580	604	619	
10	0	0	0	0	438	568	610	624	
11	0	0	0	0	388	553	615	630	
12	0	0	0	0	355	543	622	643	
13	0	0	0	0	384	543	632	656	
14	0	0	0	0	466	555	644	670	
15	0	0	0	0	529	574	653	676	
0	0	0	0	0	550	587	675	685	
1	0	0	0	0	590	584	651	636	
2	0	0	0	0	591	592	626	584	
3	0	0	0	0	576	623	602	551	
4	0	0	0	0	557	664	588	524	
5	0	0	0	0	587	703	578	508	
6	0	0	0	0	629	745	560	498	
7	0	0	0	0	588	783	546	492	
8	0	0	0	0	533	807	538	484	
9	0	0	0	0	487	819	533	474	
10	0	0	0	0	434	819	524	465	
11	0	0	0	0	408	811	512	462	
12	0	0	0	0	411	802	498	459	
13	0	0	0	0	436	791	489	453	
14	0	0	0	0	443	782	483	445	
15	0	0	0	0	420	774	481	432	
0	0	0	0	0	368	766	484	419	
1	0	0	0	0	385	759	488	404	
2	0	0	0	0	489	750	495	388	
3	0	0	0	0	540	739	503	375	
4	0	0	0	0	581	729	512	363	
5	0	0	0	0	608	717	520	355	
6	0	0	0	0	622	703	527	349	
7	0	0	0	0	607	679	534	341	
8	0	0	0	0	601	655	537	343	
9	0	0	0	0	628	628	541	347	
10	0	0	0	0	654	601	542	353	
11	0	0	0	0	608	575	542	361	
12	0	0	0	0	538	554	542	371	
13	0	0	0	0	491	536	543	377	
14	0	0	0	0	463	523	546	385	
15	0	0	0	0	441	510	549	387	
0	0	0	0	0	432	500	552	391	
1	0	0	0	0	410	492	554	396	
2	0	0	0	0	407	486	557	399	
3	0	0	0	0	394	480	560	403	
4	0	0	0	0	391	474	562	407	
5	0	0	0	0	418	472	564	412	
6	0	0	0	0	496	470	563	419	
7	0	0	0	0	600	469	563	424	
8	0	0	0	0	628	470	562	429	
9	0	0	0	0	583	471	562	434	
10	0	0	0	0	527	473	560	440	
11	0	0	0	0	582	477	559	445	
12	0	0	0	0	545	480	558	449	
13	0	0	0	0	603	486	557	455	
14	0	0	0	0	654	494	557	459	
15	0	0	0	0	591	502	556	461	
0	0	0	0	0	510	511	556	465	
1	0	0	0	0	472	520	558	468	
2	0	0	0	0	464	529	559	472	
3	0	0	0	0	461	539	562	476	
4	0	0	0	0	451	547	564	480	
5	0	0	0	0	436	555	568	483	
6	0	0	0	0	443	563	572	487	
7	0	0	0	0	409	569	575	489	
8	0	0	0	0	384	575	577	493	
9	0	0	0	0	421	579	580	496	
10	0	0	0	0	468	584	582	499	
11	0	0	0	0	505	588	583	502	
12	0	0	0	0	544	592	583	503	
13	0	0	0	0	564	595	583	504	
14	0	0	0	0	588	598	582	505	
15	0	0	0	0	613	600	581	506	
0	0	0	0	0	627	603	580	507	
1	0	0	0	0	665	606	578	507	
2	0	0	0	0	648	608	577	507	
3	0	0	0	0	576	610	577	506	
4	0	0	0	0	507	612	575	507	
5	0	0	0	0	461	616	573	509	
6	0	0	0	0	420	620	572	511	
7	0	0	0	0	402	625	570	512	
8	0	0	0	0	405	629	569	512	
9	0	0	0	0	422	621	572	502	
10	0	0	0	0	430	614	574	502	
11	0	0	0	0	415	616	572	511	
12	0	0	0	0	397	622	568	516	
13	0	0	0	0	426	627	566	516	
14	0	0	0	0	487	631	567	515	
15	0	0	0	0	555	635	567	511	
0	0	0	0	0	604	637	568	509	
1	0	0	0	0	631	637	569	507	
2	0	0	0	0	625	636	570	506	
3	0	0	0	0	612	635	571	506	
4	0	0	0	0	606	632	571	506	
5	0	0	0	0	645	631	571	505	
6	0	0	0	0	669	628	571	505	
7	0	0	0	0	580	625	572	503	
8	0	0	0	0	467	623	572	503	
9	0	0	0	0	408	619	572	502	
10	0	0	0	0	409	617	572	500	
11	0	0	0	0	419	614	573	500	
12	0	0	0	0	410	612	573	501	
13	0	0	0	0	420	610	573	501	
14	0	0	0	0	446	608	573	502	
15	0	0	0	0	426	607	573	500	
0	0	0	0	0	392	606	573	499	
1	0	0	0	0	405	605	573	498	
2	0	0	0	0	462	604	573	498	
3	0	0	0	0	524	603	572	499	
4	0	0	0	0	565	603	571	498	
5	0	0	0	0	596	601	571	498	
6	0	0	0	0	608	599	570	497	
7	0	0	0	0	622	598	570	496	
8	0	0	0	0	606	596	570	496	
9	0	0	0	0	627	595	569	496	
10	0	0	0	0	641	593	569	495	
11	0	0	0	0	583	591	568	495	
12	0	0	0	0	543	590	568	494	
13	0	0	0	0	512	588	568	494	
14	0	0	0	0	449	585	568	494	
15	0	0	0	0	429	584	568	492	
0	0	0	0	0	435	582	568	492	
1	0	0	0	0	418	581	568	492	
2	0	0	0	0	419	580	568	492	
3	0	0	0	0	400	578	569	492	
4	0	0	0	0	365	577	569	492	
5	0	0	0	0	395	577	570	490	
6	0	0	0	0	479	577	570	491	
7	0	0	0	0	533	576	569	490	
8	0	0	0	0	580	577	569	491	
9	0	0	0	0	625	577	568	490	
10	0	0	0	0	630	577	569	489	
11	0	0	0	0	630	579	570	490	
12	0	0	0	0	595	579	569	489	
13	0	0	0	0	600	582	569	487	
14	0	0	0	0	641	583	568	487	
15	0	0	0	0	572	586	566	484	
0	0	0	0	0	485	588	567	483	
1	0	0	0	0	452	591	565	482	
2	0	0	0	0	426	593	564	481	
3	0	0	0	0	429	595	564	480	
4	0	0	0	0	464	596	565	479	
5	0	0	0	0	461	598	565	478	
6	0	0	0	0	430	599	564	479	
7	0	0	0	0	380	600	564	479	
8	0	0	0	0	368	601	564	479	
9	0	0	0	0	401	601	564	480	
10	0	0	0	0	459	602	564	481	
11	0	0	0	0	511	602	564	482	
12	0	0	0	0	544	604	565	483	
13	0	0	0	0	574	604	566	484	
14	0	0	0	0	601	605	566	485	
15	0	0	0	0	645	606	567	485	
0	0	0	0	0	643	608	566	485	
1	0	0	0	0	669	609	567	486	
2	0	0	0	0	706	610	568	486	
3	0	0	0	0	657	611	568	487	
4	0	0	0	0	526	612	569	487	
5	0	0	0	0	437	614	569	488	
6	0	0	0	0	428	614	570	489	
7	0	0	0	0	420	614	571	489	
8	0	0	0	0	389	614	571	490	
9	0	0	0	0	384	615	572	492	
10	0	0	0	0	410	615	573	492	
11	0	0	0	0	412	615	572	493	
12	0	0	0	0	397	615	572	493	
13	0	0	0	0	414	615	573	493	
14	0	0	0	0	471	616	573	494	
15	0	0	0	0	512	615	573	493	
0	0	0	0	0	548	616	572	492	
1	0	0	0	0	579	617	573	492	
2	0	0	0	0	589	616	573	491	
3	0	0	0	0	600	617	572	491	
4	0	0	0	0	620	616	570	490	
5	0	0	0	0	668	617	570	489	
6	0	0	0	0	676	617	569	490	
7	0	0	0	0	596	616	568	487	
8	0	0	0	0	543	616	566	487	
9	0	0	0	0	501	615	566	487	
10	0	0	0	0	483	615	565	486	
11	0	0	0	0	547	614	564	486	
12	0	0	0	0	448	613	564	487	
13	0	0	0	0	354	612	563	488	
14	0	0	0	0	383	611	563	490	
15	0	0	0	0	377	611	563	491	
0	0	0	0	0	319	610	562	494	
1	0	0	0	0	362	610	562	493	
2	0	0	0	0	472	609	561	491	
3	0	0	0	0	531	609	561	489	
4	0	0	0	0	565	610	561	488	
5	0	0	0	0	595	610	561	490	
6	0	0	0	0	609	611	561	491	
7	0	0	0	0	618	611	562	493	
8	0	0	0	0	629	611	561	496	
9	0	0	0	0	646	611	562	498	
10	0	0	0	0	643	610	563	500	
11	0	0	0	0	609	609	564	502	
12	0	0	0	0	556	608	565	504	
13	0	0	0	0	531	607	567	504	
14	0	0	0	0	443	606	568	507	
15	0	0	0	0	389	604	569	507	
0	0	0	0	0	395	602	570	507	
1	0	0	0	0	364	600	572	507	
2	0	0	0	0	418	598	571	506	
3	0	0	0	0	422	597	572	506	
4	0	0	0	0	423	595	571	505	
5	0	0	0	0	414	593	572	506	
6	0	0	0	0	470	591	572	506	
7	0	0	0	0	533	589	572	507	
8	0	0	0	0	559	588	572	508	
9	0	0	0	0	580	587	573	509	
10	0	0	0	0	587	587	572	510	
11	0	0	0	0	596	587	574	510	
12	0	0	0	0	595	587	574	510	
13	0	0	0	0	631	588	574	509	
14	0	0	0	0	641	589	574	508	
15	0	0	0	0	596	591	572	505	
0	0	0	0	0	518	593	572	504	
1	0	0	0	0	441	596	572	501	
2	0	0	0	0	409	598	572	499	
3	0	0	0	0	423	600	571	499	
4	0	0	0	0	472	602	571	497	
5	0	0	0	0	480	604	570	497	
6	0	0	0	0	415	605	569	496	
7	0	0	0	0	417	606	568	496	
8	0	0	0	0	455	607	568	496	
9	0	0	0	0	424	609	568	495	
10	0	0	0	0	460	610	568	494	
11	0	0	0	0	491	611	566	494	
12	0	0	0	0	636	612	566	494	
13	0	0	0	0	600	613	565	493	
14	0	0	0	0	563	613	565	493	
15	0	0	0	0	637	614	565	493	
0	0	0	0	0	627	614	565	493	
1	0	0	0	0	613	614	564	494	
2	0	0	0	0	644	614	564	493	
3	0	0	0	0	574	613	564	494	
4	0	0	0	0	486	613	564	494	
5	0	0	0	0	441	612	563	493	
6	0	0	0	0	415	610	564	494	
7	0	0	0	0	415	609	563	493	
8	0	0	0	0	360	608	563	493	
9	0	0	0	0	370	607	564	493	
10	0	0	0	0	481	606	563	492	
11	0	0	0	0	476	605	564	492	
12	0	0	0	0	536	604	563	492	
13	0	0	0	0	507	603	563	492	
14	0	0	0	0	480	602	563	493	
15	0	0	0	0	440	601	563	492	
0	0	0	0	0	431	601	563	492	
1	0	0	0	0	507	602	564	492	
2	0	0	0	0	621	602	563	491	
3	0	0	0	0	706	602	563	492	
4	0	0	0	0	805	602	564	491	
5	0	0	0	0	734	603	563	492	
6	0	0	0	0	617	604	563	492	
7	0	0	0	0	620	604	564	492	
8	0	0	0	0	486	604	564	492	
9	0	0	0	0	433	605	565	492	
10	0	0	0	0	368	605	564	493	
11	0	0	0	0	552	605	565	493	
12	0	0	0	0	329	605	565	493	
13	0	0	0	0	336	605	566	493	
14	0	0	0	0	357	604	566	494	
15	0	0	0	0	408	604	567	493	
0	0	0	0	0	422	604	567	494	
1	0	0	0	0	391	603	568	493	
2	0	0	0	0	448	603	568	492	
3	0	0	0	0	492	603	568	493	
4	0	0	0	0	582	602	569	492	
5	0	0	0	0	620	602	568	492	
6	0	0	0	0	658	602	568	492	
7	0	0	0	0	714	602	569	491	
8	0	0	0	0	620	602	569	490	
9	0	0	0	0	646	602	569	490	
10	0	0	0	0	574	602	569	489	
11	0	0	0	0	513	602	569	489	
12	0	0	0	0	581	602	569	489	
13	0	0	0	0	536	602	569	489	
14	0	0	0	0	547	602	569	489	
15	0	0	0	0	486	601	568	489	
0	0	0	0	0	605	601	568	488	
1	0	0	0	0	682	600	569	490	
2	0	0	0	0	419	600	569	490	
3	0	0	0	0	272	597	568	490	
4	0	0	0	0	142	597	568	487	
5	0	0	0	0	212	597	566	476	
6	0	0	0	0	208	601	562	460	
7	0	0	0	0	237	607	556	447	
8	0	0	0	0	327	613	550	448	
9	0	0	0	0	430	618	545	458	
10	0	0	0	0	574	618	542	472	
11	0	0	0	0	729	614	542	487	
12	0	0	0	0	858	607	544	496	
13	0	0	0	0	922	600	546	498	
14	0	0	0	0	951	595	548	495	
15	0	0	0	0	806	594	549	489	
0	0	0	0	0	588	596	550	485	
1	0	0	0	0	687	598	550	481	
2	0	0	0	0	305	600	550	482	
3	0	0	0	0	149	602	552	483	
4	0	0	0	0	247	601	554	484	
5	0	0	0	0	360	599	557	484	
6	0	0	0	0	383	596	559	483	
7	0	0	0	0	304	593	562	481	
8	0	0	0	0	309	590	564	478	
9	0	0	0	0	390	588	565	477	
10	0	0	0	0	540	585	567	475	
11	0	0	0	0	602	582	567	475	
12	0	0	0	0	649	579	567	476	
13	0	0	0	0	795	577	566	477	
14	0	0	0	0	629	575	566	480	
15	0	0	0	0	650	575	566	483	
0	0	0	0	0	672	576	567	485	
1	0	0	0	0	633	577	568	487	
2	0	0	0	0	545	580	569	491	
3	0	0	0	0	372	583	572	498	
4	0	0	0	0	349	586	575	497	
5	0	0	0	0	429	586	576	495	
6	0	0	0	0	466	585	577	494	
7	0	0	0	0	437	585	577	494	
8	0	0	0	0	405	585	576	496	
9	0	0	0	0	382	583	577	499	
10	0	0	0	0	385	583	577	505	
11	0	0	0	0	383	584	576	512	
12	0	0	0	0	392	587	576	517	
13	0	0	0	0	442	589	576	520	
14	0	0	0	0	515	593	577	523	
15	0	0	0	0	563	596	577	524	
0	0	0	0	0	593	600	576	525	
1	0	0	0	0	615	602	578	526	
2	0	0	0	0	625	604	578	527	
3	0	0	0	0	627	607	580	529	
4	0	0	0	0	623	608	580	531	
5	0	0	0	0	666	608	580	532	
6	0	0	0	0	688	608	581	535	
7	0	0	0	0	610	607	582	536	
8	0	0	0	0	507	605	583	540	
9	0	0	0	0	455	601	585	544	
10	0	0	0	0	407	594	589	551	
11	0	0	0	0	415	586	591	561	
12	0	0	0	0	571	578	597	574	
13	0	0	0	0	514	569	604	586	
14	0	0	0	0	435	556	609	594	
15	0	0	0	0	372	545	614	603	
0	0	0	0	0	330	541	617	618	
1	0	0	0	0	346	547	626	627	
2	0	0	0	0	441	563	639	636	
3	0	0	0	0	523	586	648	643	
4	0	0	0	0	588	608	657	646	
5	0	0	0	0	624	611	658	638	
6	0	0	0	0	615	615	634	582	
7	0	0	0	0	618	639	609	536	
8	0	0	0	0	603	670	590	491	
9	0	0	0	0	634	699	578	473	
10	0	0	0	0	633	728	562	476	
11	0	0	0	0	590	757	543	487	
12	0	0	0	0	526	779	532	487	
13	0	0	0	0	485	791	526	480	
14	0	0	0	0	448	792	521	473	
15	0	0	0	0	444	785	511	470	
0	0	0	0	0	447	778	500	467	
1	0	0	0	0	435	773	491	461	
2	0	0	0	0	407	769	486	449	
3	0	0	0	0	319	767	484	433	
4	0	0	0	0	353	765	487	415	
5	0	0	0	0	395	766	491	403	
6	0	0	0	0	497	771	497	393	
7	0	0	0	0	542	771	504	381	
8	0	0	0	0	575	762	514	365	
9	0	0	0	0	580	744	525	351	
10	0	0	0	0	587	720	535	345	
11	0	0	0	0	628	690	543	344	
12	0	0	0	0	628	657	548	346	
13	0	0	0	0	660	624	549	351	
14	0	0	0	0	682	592	548	358	
15	0	0	0	0	618	564	547	363	
0	0	0	0	0	507	540	547	371	
1	0	0	0	0	425	520	546	377	
2	0	0	0	0	411	504	547	383	
3	0	0	0	0	421	492	548	388	
4	0	0	0	0	428	483	550	392	
5	0	0	0	0	426	477	553	395	
6	0	0	0	0	434	472	555	398	
7	0	0	0	0	416	468	559	400	
8	0	0	0	0	384	466	560	403	
9	0	0	0	0	408	465	563	407	
10	0	0	0	0	477	465	564	411	
11	0	0	0	0	543	465	564	415	
12	0	0	0	0	592	467	565	420	
13	0	0	0	0	606	466	565	425	
14	0	0	0	0	616	468	564	433	
15	0	0	0	0	623	470	563	439	
0	0	0	0	0	614	473	562	444	
1	0	0	0	0	657	477	561	450	
2	0	0	0	0	700	481	561	455	
3	0	0	0	0	651	487	562	460	
4	0	0	0	0	526	497	562	465	
5	0	0	0	0	454	505	562	470	
6	0	0	0	0	409	515	563	474	
7	0	0	0	0	361	524	566	478	
8	0	0	0	0	344	534	568	481	
9	0	0	0	0	365	543	571	486	
10	0	0	0	0	401	554	572	490	
11	0	0	0	0	387	564	575	495	
12	0	0	0	0	386	574	577	498	
13	0	0	0	0	447	582	579	500	
14	0	0	0	0	528	589	580	503	
15	0	0	0	0	554	594	581	505	
0	0	0	0	0	544	599	583	506	
1	0	0	0	0	577	602	583	508	
2	0	0	0	0	585	606	583	508	
3	0	0	0	0	622	609	583	510	
4	0	0	0	0	636	611	583	511	
5	0	0	0	0	679	614	582	512	
6	0	0	0	0	683	617	581	513	
7	0	0	0	0	610	622	579	515	
8	0	0	0	0	526	627	577	516	
9	0	0	0	0	451	632	576	516	
10	0	0	0	0	406	633	575	515	
11	0	0	0	0	381	633	575	515	
12	0	0	0	0	403	634	575	517	
13	0	0	0	0	425	634	575	519	
14	0	0	0	0	454	628	575	517	
15	0	0	0	0	447	627	575	517	
0	0	0	0	0	416	625	574	520	
1	0	0	0	0	422	624	572	522	
2	0	0	0	0	449	624	572	521	
3	0	0	0	0	518	624	572	521	
4	0	0	0	0	553	625	572	521	
5	0	0	0	0	570	627	571	522	
6	0	0	0	0	562	630	571	521	
7	0	0	0	0	542	630	572	518	
8	0	0	0	0	527	629	574	516	
9	0	0	0	0	616	626	575	515	
10	0	0	0	0	672	624	575	514	
11	0	0	0	0	643	623	575	514	
12	0	0	0	0	562	622	575	515	
13	0	0	0	0	519	620	575	514	
14	0	0	0	0	466	619	575	513	
15	0	0	0	0	424	619	576	511	
0	0	0	0	0	407	617	576	510	
1	0	0	0	0	434	615	577	509	
2	0	0	0	0	479	612	577	507	
3	0	0	0	0	490	609	576	507	
4	0	0	0	0	444	607	576	505	
5	0	0	0	0	443	605	575	505	
6	0	0	0	0	479	603	575	506	
7	0	0	0	0	473	600	574	505	
8	0	0	0	0	472	599	573	504	
9	0	0	0	0	519	597	573	502	
10	0	0	0	0	551	596	571	501	
11	0	0	0	0	559	595	571	501	
12	0	0	0	0	581	593	569	500	
13	0	0	0	0	626	593	569	499	
14	0	0	0	0	651	592	568	498	
15	0	0	0	0	622	591	568	497	
0	0	0	0	0	547	591	568	496	
1	0	0	0	0	500	590	567	494	
2	0	0	0	0	467	589	566	492	
3	0	0	0	0	446	590	564	489	
4	0	0	0	0	446	590	562	487	
5	0	0	0	0	457	589	562	484	
6	0	0	0	0	443	589	561	483	
7	0	0	0	0	403	588	561	480	
8	0	0	0	0	401	587	560	479	
9	0	0	0	0	440	586	561	477	
10	0	0	0	0	503	584	561	477	
11	0	0	0	0	568	583	561	477	
12	0	0	0	0	599	583	561	477	
13	0	0	0	0	585	583	561	477	
14	0	0	0	0	585	582	561	478	
15	0	0	0	0	580	583	562	478	
0	0	0	0	0	532	582	563	478	
1	0	0	0	0	529	583	564	479	
2	0	0	0	0	577	584	565	480	
3	0	0	0	0	590	585	566	481	
4	0	0	0	0	555	586	567	482	
5	0	0	0	0	530	587	567	483	
6	0	0	0	0	465	588	568	486	
7	0	0	0	0	409	589	568	486	
8	0	0	0	0	400	591	569	487	
9	0	0	0	0	406	591	570	489	
10	0	0	0	0	414	593	571	490	
11	0	0	0	0	397	596	572	491	
12	0	0	0	0	399	597	573	493	
13	0	0	0	0	444	599	572	494	
14	0	0	0	0	490	601	573	497	
15	0	0	0	0	517	604	574	497	
0	0	0	0	0	565	607	574	498	
1	0	0	0	0	601	609	574	499	
2	0	0	0	0	620	612	574	498	
3	0	0	0	0	615	616	574	499	
4	0	0	0	0	640	617	574	498	
5	0	0	0	0	685	620	573	497	
6	0	0	0	0	681	620	572	497	
7	0	0	0	0	612	621	572	496	
8	0	0	0	0	511	622	571	496	
9	0	0	0	0	465	621	569	495	
10	0	0	0	0	460	622	569	495	
11	0	0	0	0	438	621	569	495	
12	0	0	0	0	417	620	568	495	
13	0	0	0	0	402	620	568	495	
14	0	0	0	0	400	619	567	496	
15	0	0	0	0	398	619	566	495	
0	0	0	0	0	369	617	566	495	
1	0	0	0	0	426	617	565	496	
2	0	0	0	0	485	616	566	497	
3	0	0	0	0	538	617	566	497	
4	0	0	0	0	594	617	565	496	
5	0	0	0	0	603	618	564	495	
6	0	0	0	0	662	620	564	495	
7	0	0	0	0	648	621	564	496	
8	0	0	0	0	514	621	564	497	
9	0	0	0	0	521	622	565	500	
10	0	0	0	0	573	621	567	503	
11	0	0	0	0	554	620	567	505	
12	0	0	0	0	498	619	569	508	
13	0	0	0	0	478	617	570	511	
14	0	0	0	0	531	615	572	513	
15	0	0	0	0	515	611	574	514	
0	0	0	0	0	457	608	575	515	
1	0	0	0	0	469	603	577	515	
2	0	0	0	0	491	599	577	515	
3	0	0	0	0	431	596	578	516	
4	0	0	0	0	346	591	579	517	
5	0	0	0	0	320	588	579	518	
6	0	0	0	0	388	586	580	520	
7	0	0	0	0	492	584	580	522	
8	0	0	0	0	601	583	582	523	
9	0	0	0	0	635	583	582	523	
10	0	0	0	0	668	584	582	520	
11	0	0	0	0	711	587	582	518	
12	0	0	0	0	563	590	581	515	
13	0	0	0	0	499	594	580	513	
14	0	0	0	0	560	597	579	511	
15	0	0	0	0	569	601	578	508	
0	0	0	0	0	534	605	577	507	
1	0	0	0	0	515	607	575	505	
2	0	0	0	0	573	609	574	505	
3	0	0	0	0	370	612	573	504	
4	0	0	0	0	440	613	571	504	
5	0	0	0	0	450	612	571	504	
6	0	0	0	0	446	613	570	504	
7	0	0	0	0	501	612	568	503	
8	0	0	0	0	491	612	569	503	
9	0	0	0	0	461	611	569	503	
10	0	0	0	0	535	609	568	503	
11	0	0	0	0	527	607	568	503	
12	0	0	0	0	619	606	567	502	
13	0	0	0	0	603	604	568	502	
14	0	0	0	0	429	602	567	504	
15	0	0	0	0	370	600	567	503	
0	0	0	0	0	443	599	567	504	
1	0	0	0	0	650	597	568	503	
2	0	0	0	0	780	595	568	502	
3	0	0	0	0	902	594	568	502	
4	0	0	0	0	614	594	568	501	
5	0	0	0	0	484	593	568	501	
6	0	0	0	0	454	594	568	501	
7	0	0	0	0	379	594	568	499	
8	0	0	0	0	358	594	567	497	
9	0	0	0	0	382	595	568	497	
10	0	0	0	0	465	595	565	496	
11	0	0	0	0	502	596	564	496	
12	0	0	0	0	436	597	563	495	
13	0	0	0	0	316	598	563	494	
14	0	0	0	0	239	598	563	494	
15	0	0	0	0	413	598	562	492	
0	0	0	0	0	459	599	562	492	
1	0	0	0	0	523	600	563	491	
2	0	0	0	0	651	600	563	490	
3	0	0	0	0	726	601	563	491	
4	0	0	0	0	756	601	564	491	
5	0	0	0	0	795	601	564	491	
6	0	0	0	0	771	602	565	491	
7	0	0	0	0	677	602	565	491	
8	0	0	0	0	495	603	566	490	
9	0	0	0	0	352	603	566	489	
10	0	0	0	0	337	603	568	489	
11	0	0	0	0	208	602	568	487	
12	0	0	0	0	183	601	568	482	
13	0	0	0	0	412	603	565	465	
14	0	0	0	0	569	608	560	443	
15	0	0	0	0	316	616	551	433	
0	0	0	0	0	287	623	544	440	
1	0	0	0	0	378	626	537	452	
2	0	0	0	0	567	626	534	469	
3	0	0	0	0	608	621	535	483	
4	0	0	0	0	612	614	537	491	
5	0	0	0	0	524	606	540	489	
6	0	0	0	0	513	604	541	484	
7	0	0	0	0	528	604	541	479	
8	0	0	0	0	580	606	540	475	
9	0	0	0	0	803	610	539	476	
10	0	0	0	0	1021	611	540	477	
11	0	0	0	0	854	612	544	480	
12	0	0	0	0	551	610	546	483	
13	0	0	0	0	393	607	550	485	
14	0	0	0	0	408	603	553	487	
15	0	0	0	0	273	599	558	485	
0	0	0	0	0	236	593	561	484	
1	0	0	0	0	297	588	564	484	
2	0	0	0	0	372	583	565	485	
3	0	0	0	0	444	578	564	487	
4	0	0	0	0	495	575	565	489	
5	0	0	0	0	529	575	564	491	
6	0	0	0	0	623	575	565	494	
7	0	0	0	0	672	579	567	495	
8	0	0	0	0	674	583	568	496	
9	0	0	0	0	621	589	570	498	
10	0	0	0	0	540	594	571	498	
11	0	0	0	0	384	600	572	500	
12	0	0	0	0	288	604	572	501	
13	0	0	0	0	418	608	573	501	
14	0	0	0	0	547	612	575	503	
15	0	0	0	0	528	613	575	503	
0	0	0	0	0	497	615	576	504	
1	0	0	0	0	516	614	577	505	
2	0	0	0	0	522	613	578	508	
3	0	0	0	0	470	612	580	506	
4	0	0	0	0	435	608	580	504	
5	0	0	0	0	454	604	580	504	
6	0	0	0	0	478	601	578	506	
7	0	0	0	0	455	599	579	508	
8	0	0	0	0	432	598	576	511	
9	0	0	0	0	451	599	577	514	
10	0	0	0	0	514	601	577	518	
11	0	0	0	0	569	604	576	519	
12	0	0	0	0	602	608	577	519	
13	0	0	0	0	608	611	575	517	
14	0	0	0	0	605	613	575	518	
15	0	0	0	0	617	614	575	518	
0	0	0	0	0	621	616	575	519	
1	0	0	0	0	633	616	575	519	
2	0	0	0	0	642	615	575	519	
3	0	0	0	0	593	615	575	519	
4	0	0	0	0	526	615	576	519	
5	0	0	0	0	482	613	576	519	
6	0	0	0	0	446	612	576	521	
7	0	0	0	0	414	612	576	521	
8	0	0	0	0	368	610	577	522	
9	0	0	0	0	381	608	579	524	
10	0	0	0	0	434	606	581	527	
11	0	0	0	0	410	601	583	533	
12	0	0	0	0	432	595	586	540	
13	0	0	0	0	447	587	589	550	
14	0	0	0	0	492	579	595	562	
15	0	0	0	0	534	568	602	578	
0	0	0	0	0	553	558	611	592	
1	0	0	0	0	588	545	619	600	
2	0	0	0	0	625	536	624	612	
3	0	0	0	0	590	536	629	628	
4	0	0	0	0	594	547	640	636	
5	0	0	0	0	639	569	652	636	
6	0	0	0	0	651	592	666	633	
7	0	0	0	0	588	596	673	623	
8	0	0	0	0	510	597	650	573	
9	0	0	0	0	466	634	623	529	
10	0	0	0	0	422	680	596	472	
11	0	0	0	0	404	720	576	447	
12	0	0	0	0	402	750	555	450	
13	0	0	0	0	421	775	534	465	
14	0	0	0	0	430	796	522	479	
15	0	0	0	0	417	807	519	477	
0	0	0	0	0	393	812	517	469	
1	0	0	0	0	423	809	510	458	
2	0	0	0	0	510	806	500	452	
3	0	0	0	0	548	801	488	444	
4	0	0	0	0	578	795	481	427	
5	0	0	0	0	604	788	479	409	
6	0	0	0	0	615	779	479	392	
7	0	0	0	0	624	767	482	380	
8	0	0	0	0	575	752	487	373	
9	0	0	0	0	576	735	495	366	
10	0	0	0	0	641	713	504	361	
11	0	0	0	0	606	689	516	357	
12	0	0	0	0	556	663	526	355	
13	0	0	0	0	506	635	534	355	
14	0	0	0	0	425	608	539	358	
15	0	0	0	0	391	582	543	360	
0	0	0	0	0	376	560	546	364	
1	0	0	0	0	349	541	547	369	
2	0	0	0	0	366	525	548	372	
3	0	0	0	0	387	512	551	375	
4	0	0	0	0	392	502	554	377	
5	0	0	0	0	441	491	556	378	
6	0	0	0	0	516	483	559	381	
7	0	0	0	0	563	475	560	382	
8	0	0	0	0	605	469	563	383	
9	0	0	0	0	604	462	566	385	
10	0	0	0	0	608	456	567	387	
11	0	0	0	0	615	451	569	393	
12	0	0	0	0	631	446	568	399	
13	0	0	0	0	655	443	569	406	
14	0	0	0	0	637	440	569	414	
15	0	0	0	0	547	440	568	421	
0	0	0	0	0	483	441	568	430	
1	0	0	0	0	467	444	567	436	
2	0	0	0	0	472	448	567	443	
3	0	0	0	0	467	455	568	449	
4	0	0	0	0	467	463	567	455	
5	0	0	0	0	486	472	567	460	
6	0	0	0	0	476	481	567	465	
7	0	0	0	0	410	491	567	467	
8	0	0	0	0	328	502	568	471	
9	0	0	0	0	342	512	568	474	
10	0	0	0	0	430	523	571	476	
11	0	0	0	0	493	533	572	479	
12	0	0	0	0	528	542	574	483	
13	0	0	0	0	577	552	576	486	
14	0	0	0	0	595	560	576	488	
15	0	0	0	0	611	568	577	490	
0	0	0	0	0	632	575	579	493	
1	0	0	0	0	691	582	579	496	
2	0	0	0	0	726	589	579	498	
3	0	0	0	0	682	595	580	501	
4	0	0	0	0	622	600	579	503	
5	0	0	0	0	536	605	579	505	
6	0	0	0	0	432	610	579	508	
7	0	0	0	0	357	615	578	509	
8	0	0	0	0	401	619	578	512	
9	0	0	0	0	365	623	577	514	
10	0	0	0	0	344	627	577	515	
11	0	0	0	0	281	631	576	517	
12	0	0	0	0	277	634	575	519	
13	0	0	0	0	383	637	575	520	
14	0	0	0	0	543	638	574	522	
15	0	0	0	0	584	639	574	522	
0	0	0	0	0	608	641	575	523	
1	0	0	0	0	629	642	575	523	
2	0	0	0	0	623	642	574	524	
3	0	0	0	0	587	642	574	524	
4	0	0	0	0	577	641	574	524	
5	0	0	0	0	608	640	574	523	
6	0	0	0	0	628	639	574	523	
